BCL,BCC,BCL_Filtered,BCC_Filtered
-,-,-,-
0.00170383463524786,-0.000801992464184312,-3.74177901559835e-21,6.07204313813976e-21
0.00169553766820059,-0.000805759477958648,-8.56965838245965e-06,-4.54913355733699e-06
0.00169025669635872,-0.000805223036123695,-1.2830949076637e-05,-4.00947426364609e-06
0.00169125805445063,-0.000798571157370279,-1.28558906190865e-05,1.69242418222488e-06
0.00169084082191234,-0.000791907357687196,-1.26793395760488e-05,7.30484761480076e-06
0.00168709764999733,-0.000792431878592484,-1.56645386962411e-05,7.65012753996681e-06
0.00168342600366032,-0.000794696855228952,-2.10007426596081e-05,3.52485717803133e-06
0.00167776356206915,-0.000796663808623779,-2.51862203267536e-05,1.0124511894074e-06
0.00167697678071122,-0.00079342131575473,-2.62143840641464e-05,4.46073415086197e-06
0.00167847881784909,-0.000785541581245755,-2.51352291438166e-05,1.16938152859525e-05
0.00168005238056495,-0.00077834133972772,-2.36438610383379e-05,1.72357826078424e-05
0.00168179283629613,-0.000776791618871189,-2.16639904946065e-05,1.88412723056987e-05
0.00168498764544652,-0.000776612804926205,-1.81244226566102e-05,1.92719028536451e-05
0.00169111500329465,-0.000771474884240322,-1.30229687933029e-05,2.24398007235593e-05
0.00169705162626813,-0.000764143512495965,-7.39914453483346e-06,2.92271997892427e-05
0.0017015696586114,-0.000756907508188934,-1.68439257256301e-06,3.66817338095282e-05
0.00170904408151174,-0.000752222582830345,4.61013945302933e-06,4.04307816072886e-05
0.00171638737418576,-0.00075280670838396,1.15209448082131e-05,3.85442103109949e-05
0.00172364722035213,-0.000757074401204252,1.80582242783656e-05,3.36891429417576e-05
0.0017270208434475,-0.000760507628947951,2.3289299269851e-05,3.0463497461339e-05
0.00173355351290426,-0.000759255931333061,2.70990804420821e-05,3.0042073102364e-05
0.00173593769883738,-0.000759649322012026,2.95172417662111e-05,2.90946747365069e-05
0.00173649798253167,-0.000762891814881075,3.01410644208358e-05,2.48282667504462e-05
0.00173504362911246,-0.000769102619236864,2.87564203632892e-05,1.86500876447061e-05
0.00173387537800523,-0.00077344183763515,2.58004640129459e-05,1.28460666813405e-05
0.00173059712234718,-0.000779044674577992,2.15751420679453e-05,6.09914518041583e-06
0.0017235160901258,-0.000789022492708116,1.57269195593377e-05,-4.30742243740943e-06
0.00171772251830831,-0.000801396417701031,8.45869379558699e-06,-1.71187713097908e-05
0.0017128706999344,-0.000810015249849275,1.75669726699556e-06,-2.75478931389909e-05
0.00170925865824572,-0.000814282942669567,-1.92097803083608e-06,-3.27002001507058e-05
0.00170811424899782,-0.000814795542645189,-2.41064614862899e-06,-3.33037333120103e-05
0.00171089182560991,-0.000810205984723925,-2.31898736406925e-06,-3.03973923952191e-05
0.001709854704729,-0.000802898454838899,-4.28076202352963e-06,-2.41781365586665e-05
0.00170540819796373,-0.000794839906384939,-8.45806883336263e-06,-1.68089389009741e-05
0.00170133124001808,-0.000789547013613404,-1.32710652175654e-05,-1.26526003374597e-05
0.00169953117963858,-0.000789940404292369,-1.79001825630428e-05,-1.40697046132349e-05
0.00169377337061008,-0.000794160413393999,-2.31637502469643e-05,-1.96511898618413e-05
0.0016878009848476,-0.000801312971193371,-3.01375431754184e-05,-2.7761109238774e-05
0.00168069611076689,-0.000811541128846474,-3.87281637251949e-05,-3.86803086993826e-05
0.00167297134834357,-0.000822365332982858,-4.76478523073921e-05,-5.13978618322252e-05
0.00166653404632414,-0.000831508686036389,-5.50661339613993e-05,-6.13252197240322e-05
0.00166281471626846,-0.000833320667345563,-5.90722859509765e-05,-6.40059361959212e-05
0.0016657830277552,-0.000827002574622784,-5.82435140719679e-05,-5.93009421840688e-05
0.00167260179952394,-0.00081645255186871,-5.24768101998659e-05,-4.97433304351813e-05
0.00168221006883443,-0.00080224280370729,-4.31692313167282e-05,-3.68352070182265e-05
0.001694667440335,-0.000786221074236695,-3.21416950613939e-05,-2.15372019771632e-05
0.00170829306294281,-0.000769507930845495,-2.03130924032053e-05,-6.40007211627285e-06
0.00172140608557499,-0.000755476996629059,-7.60335047656877e-06,6.19703229951289e-06
0.0017357231221034,-0.000744295164602707,5.91675611907476e-06,1.70071923340798e-05
0.00175067196790409,-0.000731885476820795,1.90331378637859e-05,2.79910920066439e-05
0.00176229487432807,-0.00072035793783414,2.96858577184748e-05,3.78883665793501e-05
0.00176929246004179,-0.000714945835765948,3.63515131098848e-05,4.26917981325208e-05
0.00177385817610372,-0.000716066403154516,3.93305543563908e-05,4.06468437484993e-05
0.00177624236203685,-0.000721240086629396,4.07378389700348e-05,3.43067090477447e-05
0.00177912722701593,-0.000726652188697588,4.28953107651563e-05,2.74122513506504e-05
0.00178370486400752,-0.000731420560563836,4.62620484923876e-05,2.18511417551394e-05
0.00178638707318229,-0.000735878988258778,4.88425234735954e-05,1.77175060689519e-05
0.00178743611499286,-0.000736784978913366,4.79538670798747e-05,1.41177978958584e-05
0.00178265582219695,-0.000740599676406364,4.28587021748928e-05,9.69077538420893e-06
0.00177551518532724,-0.0007466555086765,3.55657182102972e-05,4.45793043928994e-06
0.00177011500418872,-0.000747883364432059,2.88236932760253e-05,1.33101972148865e-06
0.00176588307415742,-0.000744271322743375,2.34872748140741e-05,3.45051097519185e-06
0.00175991068839494,-0.000738871141604849,1.83264370792549e-05,9.56963085934666e-06
0.00175566683743398,-0.00073380474649696,1.24236148284479e-05,1.44346730732609e-05
0.00175045739117011,-0.000731718583805477,6.86868282885928e-06,1.45267499306424e-05
0.00174667845646611,-0.000734818025518538,3.28605060473021e-06,1.12180911156011e-05
0.00174551020535887,-0.000740253969446061,1.2380041884499e-06,7.36849231594971e-06
0.0017432809915114,-0.000741887136810251,-1.59496111871785e-06,3.27858715987133e-06
0.00173727284295993,-0.000747966810939718,-6.58112950934744e-06,-2.30169327846944e-06
0.00173233757807836,-0.000755083605950094,-1.28865350874661e-05,-9.08769317321917e-06
0.0017258049086216,-0.000760877177767585,-1.95258839427744e-05,-1.52531628840167e-05
0.00171747217878533,-0.000765061424080218,-2.69379002160084e-05,-1.94058452732673e-05
0.00170977125822134,-0.000766587303077418,-3.50136287106774e-05,-2.0861699606255e-05
0.00170460949567613,-0.000764918372924231,-4.08378532372709e-05,-1.88740235960479e-05
0.00170387039803686,-0.000759673163871358,-4.07715404571682e-05,-1.33504381149461e-05
0.00170925865824572,-0.000752782866524629,-3.47694098197187e-05,-5.95997520753685e-06
0.00171763907180065,-0.000746059462193218,-2.66643872573064e-05,8.05444000762373e-07
0.00172479162960003,-0.000741982504247576,-1.98121467244539e-05,5.53999109588729e-06
0.00172879706196767,-0.000740242048516396,-1.42002362399505e-05,8.27421498060122e-06
0.00173467408029283,-0.00073908571833883,-8.33164693584208e-06,9.63423850647249e-06
0.00174086104278928,-0.00073916916484649,-1.98723430079667e-06,1.04805701638898e-05
0.00174660693088811,-0.000738132043965581,4.06838965156516e-06,1.17013806405983e-05
0.00175062428418543,-0.000738513513714881,9.62769188435495e-06,1.35753867820636e-05
0.00175594101881629,-0.000735867067329113,1.48718813826454e-05,1.59389784409118e-05
0.00176023255349592,-0.000733447118606992,1.96352097511234e-05,1.93168861300557e-05
0.00176361809752095,-0.000729835076918308,2.39764733788509e-05,2.45699157260528e-05
0.00176723013920964,-0.000724673314373095,2.84685030243085e-05,3.07020376087129e-05
0.00177112828321029,-0.000721693081956689,3.27577626634075e-05,3.46870446057889e-05
0.00177248726919217,-0.000722003026127996,3.4985626762353e-05,3.48705672065632e-05
0.00177100907391364,-0.000725877328269322,3.41592721314318e-05,3.3111028108612e-05
0.00176808844614556,-0.000728380723499103,3.21292426812532e-05,3.19137511307973e-05
0.00176630030669572,-0.00072977547226998,3.14118974960072e-05,3.09194479252024e-05
0.0017665148834297,-0.000733447118606992,3.16715265236341e-05,2.84197618866393e-05
0.00176398764634059,-0.000739228769494818,3.02838204959178e-05,2.50796354554898e-05
0.00175839673032741,-0.000741744085654264,2.61405254482238e-05,2.31648476125534e-05
0.00175364027939083,-0.000743269964651463,2.09612450050448e-05,2.23050305570507e-05
0.00174809704709631,-0.000748407885337346,1.6640269519436e-05,1.90000340804594e-05
0.00174304257291809,-0.000757944629069843,1.30132041399864e-05,1.10992120060268e-05
0.0017391563498471,-0.000769269512252182,8.81280484095894e-06,5.56208176648763e-07
0.00173307667571763,-0.000779736088498598,3.5688696354448e-06,-9.17296081526896e-06
0.00172598372256659,-0.000789034413637782,-2.12342844108203e-06,-1.66509872862792e-05
0.00172047625306107,-0.000796270417944814,-7.5680373451452e-06,-2.24397541296179e-05
0.00171511183471154,-0.000801241445615378,-1.28850097457158e-05,-2.72379545013445e-05
0.00170717249555424,-0.000806927729065879,-1.92390346284873e-05,-3.13693164397698e-05
0.00169878016106964,-0.000811946440455105,-2.76866525840031e-05,-3.51816690316555e-05
0.00168895731502517,-0.000816154528627069,-3.71616730884782e-05,-3.8851813166922e-05
0.00168143520840616,-0.000820839453985658,-4.44484977864438e-05,-4.21498601330525e-05
0.00167746553882751,-0.000823783923613067,-4.73393107171465e-05,-4.46685770972064e-05
0.00167838345041176,-0.000825595904922241,-4.70403377907964e-05,-4.56213555137053e-05
0.0016786814736534,-0.000824415732885345,-4.60369352111496e-05,-4.35871567516791e-05
0.00168007622242428,-0.000819969226120068,-4.45547265202762e-05,-3.79164959941565e-05
0.00168374786876129,-0.000811791468369452,-4.11878132832779e-05,-3.07292647975669e-05
0.00168792019414426,-0.000809180784772681,-3.62219277627442e-05,-2.59672467229381e-05
0.00169332037528279,-0.000808548975500403,-3.15245867134528e-05,-2.56297186314033e-05
0.00169781456576673,-0.000811445761409149,-2.71059216306495e-05,-2.79601616631938e-05
0.0017041326584895,-0.000813174296210664,-2.06507477167413e-05,-2.97105798900953e-05
0.00171388397895598,-0.000812709379953705,-1.11641207935901e-05,-2.87369442843372e-05
0.001725041969123,-0.000808084059243444,-5.16202953966071e-07,-2.39417297836237e-05
0.00173531781049477,-0.000799536752673194,9.50506703205968e-06,-1.49226679675284e-05
0.0017455698100072,-0.000786745595141983,1.89933824492231e-05,-3.50559560561312e-06
0.00175353299102384,-0.000778818176914345,2.74179957144334e-05,5.75790708083561e-06
0.00175938616748966,-0.000775516079396968,3.20128797796754e-05,8.89664722529847e-06
0.00175944577213799,-0.000776839302589852,3.09453539003911e-05,6.31704675014448e-06
0.00175439129795976,-0.000781428860511116,2.63287452772031e-05,2.20191871609779e-06
0.0017505646795371,-0.000782632874407343,2.17973147581727e-05,4.61310832211687e-07
0.0017486930935796,-0.000781285809355128,1.8248992240495e-05,2.07066846711085e-06
0.00174506913096125,-0.000776231335176905,1.40487662837468e-05,5.56398683946121e-06
0.00173959742424473,-0.000772774265573875,8.54664973001476e-06,8.83422859879351e-06
0.0017353416523541,-0.000771009967983363,3.35416703059004e-06,1.08612977958473e-05
0.00173462639657416,-0.000767910526270302,4.54241053631754e-07,1.2739125548716e-05
0.00173445950355884,-0.000763070628826059,4.04284357401135e-07,1.65780607370574e-05
0.001736450298813,-0.000756812140751609,1.97541290618553e-06,2.25705253967134e-05
0.00173903714055044,-0.000750947043356123,2.67879529564404e-06,2.79941916305988e-05
0.0017380119405992,-0.000747883364432059,5.49527908792331e-07,3.0239469785745e-05
0.00173391114079423,-0.000746750876113825,-3.73952765598033e-06,2.98005034374053e-05
0.00173105011767448,-0.000747466131893762,-7.79386669963261e-06,2.87032848403082e-05
0.00172867785267102,-0.000749659582952236,-1.13005286898774e-05,2.69801635097596e-05
0.00172448168542872,-0.000751102015441776,-1.68372450222481e-05,2.29361009181418e-05
0.00171617279745178,-0.000756788298892277,-2.52827225063027e-05,1.651168752027e-05
0.00171000967681466,-0.000763976619480647,-3.27215656243051e-05,9.91832901263371e-06
0.00170931826289405,-0.000767672107676989,-3.46629698410211e-05,4.60230945454429e-06
0.00171263228134109,-0.000771081493561357,-3.18047064179756e-05,-2.40623445115e-07
0.00171678076486473,-0.000776004837513258,-2.85784196720336e-05,-5.50878041452325e-06
0.00171949873682849,-0.000780952023324491,-2.69890854451179e-05,-1.06170292119163e-05
0.00172165642509797,-0.000783586548780593,-2.50636868340813e-05,-1.49524490895581e-05
0.00172717581553315,-0.000786995934664961,-2.07398402068519e-05,-1.88240238200701e-05
0.00173466215936316,-0.000788772153185138,-1.38414529372092e-05,-2.15516392497219e-05
0.00174483071236793,-0.00078746085092192,-4.33407788496906e-06,-2.05588598902746e-05
0.00175694237690821,-0.00078092818146516,7.68301669506617e-06,-1.46577762657784e-05
0.00176998387396239,-0.000772059009793938,1.95213233335404e-05,-7.22516440891402e-06
0.00177787552940104,-0.00076807741928562,2.68872133853523e-05,-3.52449648694611e-06
0.00177924643631258,-0.000769376800619173,2.88108040388191e-05,-4.68354337738666e-06
0.00178058158043513,-0.00076951985177516,2.89669549807761e-05,-6.34734603490888e-06
0.00178263198033762,-0.000766861484459727,3.07270740286702e-05,-4.00041778653025e-06
0.00178505192905974,-0.000760650680103939,3.34432750480083e-05,1.98308275083691e-06
0.00178720961732922,-0.000754189536225172,3.51502606106681e-05,7.70531227458505e-06
0.00178833018471779,-0.000751209303808767,3.62023614455081e-05,1.08605467712109e-05
0.00178961764512167,-0.00074858669928233,3.77672427150014e-05,1.25700476197044e-05
0.00179092894738489,-0.000745940252896562,3.86617672220499e-05,1.43059467422636e-05
0.00178850899866277,-0.000746417090083187,3.6602327178824e-05,1.52536762206118e-05
0.00178298960822759,-0.000746309801716197,3.19239167938604e-05,1.42858993872903e-05
0.00177949677583556,-0.000746214434278872,2.77297863807911e-05,1.33112245645686e-05
0.00177775632010438,-0.000744211718095047,2.63664918010648e-05,1.60510193840593e-05
0.00177690993409812,-0.000738036676528256,2.71615994612116e-05,2.28997953080065e-05
0.00177799473869769,-0.000730681462924568,2.74944482951896e-05,2.91712156290524e-05
0.00177509795278895,-0.000729107900208706,2.51521312859635e-05,3.01344413931904e-05
0.00176839839031687,-0.000734221979035257,1.99992793028946e-05,2.64373346896729e-05
0.00176268826500703,-0.000738441988136887,1.3948690696827e-05,2.23784764173465e-05
0.00175616751647994,-0.000740170522938402,8.60285901498564e-06,1.95319429669621e-05
0.0017493487447112,-0.000745379969202278,2.65548447434134e-06,1.47873067933538e-05
0.00173978815911938,-0.000756144568690334,-6.79988506474871e-06,5.13354471154217e-06
0.00172537575515364,-0.000769186065744523,-1.95895139037032e-05,-8.09487821680138e-06
0.0017132879324727,-0.000782024906994397,-3.10929606378423e-05,-2.1003281898262e-05
0.00170656452814129,-0.000792157697210175,-3.71535369908809e-05,-3.12045082995544e-05
0.00170426378871583,-0.000800812292147415,-3.84754521751306e-05,-3.83200417573408e-05
0.0017033697189909,-0.000804591226851417,-3.79952822250655e-05,-4.18283792451413e-05
0.00170499096542543,-0.00080235009207428,-3.58220461675181e-05,-4.08213404458558e-05
0.00170977125822134,-0.000799179124783225,-3.0113587895038e-05,-3.58322446401556e-05
0.00171662579277908,-0.000793182897161418,-2.20118088538016e-05,-2.90973901420246e-05
0.00172191868555061,-0.000786364125392683,-1.57337505672783e-05,-2.24902607954249e-05
0.0017238975598751,-0.000779938744302913,-1.31272496270171e-05,-1.61738083436668e-05
0.00172400484824209,-0.000775146530577333,-1.1411812255205e-05,-9.54310208145361e-06
0.00172747383877479,-0.000768303916949267,-7.53852832150586e-06,-2.56069200626513e-06
0.00173208723855539,-0.00076116328007956,-1.99133273760875e-06,4.31196468950474e-06
0.00173548470351009,-0.000756311461705653,3.30301293789613e-06,1.09263597206561e-05
0.00174062262419597,-0.000749027773679958,8.22322904324305e-06,1.76539057910215e-05
0.00174467574028228,-0.000743424936737116,1.33294740231896e-05,2.4779042956565e-05
0.0017467857448331,-0.00073707108122534,1.7405380754108e-05,3.16495118482556e-05
0.00174860964707194,-0.000731921239609792,1.8797514785369e-05,3.63560003614947e-05
0.00174679766576276,-0.000733530565114651,1.82204644035357e-05,3.66490910434129e-05
0.00174509297282058,-0.000738692327659865,1.77076371581795e-05,3.16930653890789e-05
0.00174443732168897,-0.000748062178377043,1.71945527969792e-05,2.28407602710101e-05
0.00174082528000029,-0.000758945987161755,1.45039689494276e-05,1.23632398915866e-05
0.00173429261054353,-0.000770759628460385,8.79081148802422e-06,1.63507972461197e-06
0.00172708044809582,-0.000782311009306372,1.92366708680742e-06,-9.04959765546679e-06
0.00172079811816204,-0.000792443799522149,-3.93634621471412e-06,-1.92179769678017e-05
0.00171544562074218,-0.000801610994435012,-8.36052811126358e-06,-2.75745114949791e-05
0.00171163092324918,-0.000808000612735785,-1.18067589956329e-05,-3.28923285403432e-05
0.00170921097452706,-0.000811159659097174,-1.44758115832463e-05,-3.52421340518419e-05
0.00170598040258768,-0.000811505366057477,-1.6748412550775e-05,-3.59637579278218e-05
0.00170288096087461,-0.000812923956687686,-1.92568673558143e-05,-3.60702568515323e-05
0.00170124779351042,-0.00081261401251638,-2.16534548615893e-05,-3.45414267465355e-05
0.00169940004941225,-0.000806939649995544,-2.26936767519475e-05,-2.89090276793129e-05
0.00169943581220125,-0.000796639966764448,-2.25261197013692e-05,-1.86808416302655e-05
0.00169839869132034,-0.000788259553209517,-2.34437070740332e-05,-7.96272363393476e-06
0.00169535885425561,-0.000782823609281993,-2.69135024532696e-05,-2.75139628012871e-06
0.00169099579399799,-0.000784599827802171,-3.10345959169124e-05,-4.50895934758233e-06
0.00168900499874383,-0.000789165543864104,-3.2720561448805e-05,-7.82469153257855e-06
0.00169087658470133,-0.000788664864818148,-3.15989038613802e-05,-6.07195637992281e-06
0.00169272432879951,-0.000780296372192882,-2.9717184447369e-05,1.55913974172969e-06
0.00169454823103835,-0.000772392795824575,-2.77855616751495e-05,1.04714027137199e-05
0.00169892321222563,-0.000767231033279361,-2.40982624430477e-05,1.71274771425019e-05
0.00170549164447139,-0.000761401698672873,-1.76608718064612e-05,2.2256333276759e-05
0.0017129779883014,-0.000757241294219571,-1.02306059506674e-05,2.73715763804164e-05
0.00171995173215578,-0.000754427954818484,-4.01900137298935e-06,3.12934563486404e-05
0.00172560225281729,-0.000753080889766269,1.18958000582259e-06,3.22163787619771e-05
0.00173134814091612,-0.000754880950145778,7.23763753785054e-06,3.13020533496635e-05
0.00173997889399403,-0.000755679652433375,1.48030008889718e-05,3.14579099100093e-05
0.00174860964707194,-0.000753605410671557,2.27200737293545e-05,3.30163576762218e-05
0.00175529728861435,-0.000754344508310825,2.9577862255836e-05,3.31103162175453e-05
0.00176069746975288,-0.000758612201131117,3.48102889186472e-05,2.98456634895318e-05
0.00176633606948471,-0.000762534186991107,3.84057215130998e-05,2.52042774658822e-05
0.00176770697639626,-0.000765872047297481,4.05172074232292e-05,2.27034746306799e-05
0.00176886330657383,-0.000765943572875474,4.14000708758328e-05,2.32920212024773e-05
0.00177006732047005,-0.000764143512495965,4.11557189946888e-05,2.47640186882812e-05
0.00176922093446379,-0.000764644191541922,3.96108209634229e-05,2.45916152689455e-05
0.00176558505091578,-0.000767934368129633,3.68057306969049e-05,2.1947675684725e-05
0.00176341544171664,-0.000772714660925547,3.3254812255051e-05,1.69201733676994e-05
0.00176067362789354,-0.000780415581489538,2.92693405751728e-05,9.17614979590306e-06
0.00175519000024736,-0.000791811990249872,2.44257172662069e-05,-1.50638768485219e-06
0.00174951563772652,-0.000803756761774824,1.82352533294386e-05,-1.38212954839677e-05
0.0017437339868387,-0.000814986277519839,1.10035670043227e-05,-2.52086946798496e-05
0.001736450298813,-0.000823986579417382,3.61219549160305e-06,-3.39239464287269e-05
0.00172963152704427,-0.000830185462843505,-3.10389936007188e-06,-4.02553540401599e-05
0.00172517309934933,-0.000835526039333703,-8.47233844934185e-06,-4.53932685655919e-05
0.00172203789484727,-0.00083844666710178,-1.23433490179283e-05,-4.97826086269527e-05
0.00171878348104855,-0.000843226959897695,-1.59382855535491e-05,-5.31506002518959e-05
0.00171314488131671,-0.000844728997035563,-2.12585055209448e-05,-5.53288445985638e-05
0.00170696983974992,-0.000844168713341279,-2.8471712409811e-05,-5.57877036098652e-05
0.00170162926325972,-0.000840830853034905,-3.46964524737162e-05,-5.27703091843804e-05
0.0016988636075773,-0.000833869030110182,-3.68506742857352e-05,-4.47407052962234e-05
0.00170104513770611,-0.000820994426071311,-3.52533494849866e-05,-3.32868975844852e-05
0.00170410881663017,-0.000808906603390372,-3.28927746825704e-05,-2.29190439921266e-05
0.00170588503515035,-0.000804352808258105,-3.13885734445255e-05,-1.66111302202406e-05
0.00170807848620883,-0.000799107599205232,-2.93149163176964e-05,-1.25841452922227e-05
0.00171284685807507,-0.000791943120476193,-2.45705644971864e-05,-7.03271462576672e-06
0.00172115574605201,-0.00078400378131889,-1.67532335527142e-05,8.61220282364771e-07
0.00173206339669605,-0.000776398228192224,-6.77911149832086e-06,8.72554557540826e-06
0.00174252997294247,-0.000767898605340636,4.31786464048825e-06,1.53868857948198e-05
0.00175333033521952,-0.000760364577791964,1.53801597006943e-05,2.26380091135705e-05
0.00176444064166788,-0.000750505968958495,2.49200834660135e-05,3.15777744390569e-05
0.00177125941343662,-0.000741970583317911,3.1718350819085e-05,3.96172022423317e-05
0.00177364359936974,-0.000737869783512937,3.52482857999302e-05,4.33945937226782e-05
0.00177479992954731,-0.0007356286487358,3.55198462878394e-05,4.3504858315542e-05
0.0017736912830884,-0.000735378309212822,3.33282394362735e-05,4.38777471666147e-05
0.00177009116232939,-0.000732326551218423,3.0463997388203e-05,4.64878464280124e-05
0.00176748047873261,-0.000728786035107734,2.83056860659941e-05,4.85604504841318e-05
0.00176625262297706,-0.000730705304783899,2.60501838982201e-05,4.53840856584257e-05
0.00176246176734339,-0.000741887136810251,2.18105055383929e-05,3.4593515287323e-05
0.00175573836301198,-0.000757420108164555,1.57845360721189e-05,1.76482418381724e-05
0.00175054083767777,-0.000775003479421346,1.0620014206076e-05,-1.20665198552993e-06
0.00174858580521261,-0.000790607976353644,7.87396068254049e-06,-1.68926754039564e-05
0.00174670229832544,-0.000799059915486569,5.78396432913576e-06,-2.6132713186677e-05
0.00174204121482618,-0.000801074552600059,1.75154470463475e-06,-2.95196956838657e-05
0.001736450298813,-0.000801551389786684,-4.31512222723234e-06,-3.03584787416317e-05
0.00173015604794956,-0.000802063989762306,-1.04504567240548e-05,-3.08231026987273e-05
0.00172634135045656,-0.000799560594532525,-1.52389656174887e-05,-3.01861053474335e-05
0.00172239552273724,-0.000796127366788826,-1.85326118429109e-05,-2.74620973865342e-05
0.0017198086809998,-0.000794398831987311,-2.05879129795159e-05,-2.43117497169333e-05
0.00171953449961749,-0.000791573571656559,-2.21380402132497e-05,-2.36431316925253e-05
0.00171746025785567,-0.000792288827436496,-2.46465794855719e-05,-2.60034728602767e-05
0.00171164284417885,-0.000797927427168335,-2.88251963585307e-05,-2.91948960890474e-05
0.00170789967226384,-0.000799036073627238,-3.3259732955243e-05,-3.15760618316101e-05
0.00170691023510159,-0.000799405622446872,-3.6001335660703e-05,-3.41773165965797e-05
0.00170404921198185,-0.000805151510545701,-3.71965444645782e-05,-3.8708910094278e-05
0.00170254717484398,-0.000811970282314436,-3.85485344482086e-05,-4.41010648951729e-05
0.00170210610044635,-0.000811040449800518,-4.02270487294369e-05,-4.58009422247726e-05
0.00170298824924161,-0.000803971338508805,-3.98710417279299e-05,-3.88856484231701e-05
0.00170615921653266,-0.00078985695778471,-3.49934630699631e-05,-2.23558203938203e-05
0.00171649466255275,-0.000767147586771702,-2.53166581078698e-05,-6.51519311216724e-07
0.00173095475023715,-0.000745546862217597,-1.26684474281318e-05,1.9506742389709e-05
0.0017421365822635,-0.000733017965139029,2.43506310061658e-07,3.42111407272416e-05
0.00175259123758025,-0.000723564667914192,1.07958671083304e-05,4.40902492975988e-05
0.00176069746975288,-0.000715410752022907,1.75297654071653e-05,5.11708295146863e-05
0.0017642618277229,-0.000712251705661518,2.10486102719108e-05,5.54947977575613e-05
0.00176534663232247,-0.000712740463777808,2.33891517151548e-05,5.58596591388831e-05
0.00176913748795614,-0.000716316742677494,2.62800551559794e-05,5.27202852204123e-05
0.00177371512494773,-0.000720572514568121,3.02919198406372e-05,4.85708036551069e-05
0.00177817355264268,-0.000724506421357776,3.51208972673326e-05,4.55990505903663e-05
0.00178227435244765,-0.000727260156110534,3.95728957122165e-05,4.41560988677019e-05
0.00178450356629512,-0.000728547616514421,4.15625160017783e-05,4.33016270947232e-05
0.00178371678493719,-0.00073004965365229,3.97392831754493e-05,4.17861470299855e-05
0.00177863846889964,-0.000735187574338172,3.5560725404501e-05,3.89088833008464e-05
0.00177515755743727,-0.000739491029947461,3.24191125577974e-05,3.55326212793641e-05
0.00177558671090524,-0.000740897699648005,3.18890831923696e-05,3.3574306299844e-05
0.00177555094811624,-0.000743556066963438,3.16843169422284e-05,3.30534682060117e-05
0.00177119980878829,-0.000747764155135402,2.81369546517537e-05,3.0622639318689e-05
0.00176333199520898,-0.000754559085044806,2.02399571604674e-05,2.34040800606359e-05
0.00175461779562341,-0.000765466735688849,1.06718355458928e-05,1.38570272388233e-05
0.00174670229832544,-0.00077344183763515,3.09799382461332e-06,7.80951535978668e-06
0.00174201737296685,-0.000775110767788337,-1.29740817168518e-06,6.99978428913523e-06
0.00173816691268485,-0.000775671051482621,-4.88774905467965e-06,6.53266427347105e-06
0.00173280249433532,-0.000782752083704,-1.11458925974585e-05,1.41912822130752e-06
0.00172311077851717,-0.000792431878592484,-2.06115882531449e-05,-6.73533156719075e-06
0.00171313296038705,-0.000797426748122379,-2.96708437924147e-05,-1.20191085578841e-05
0.00170900831872274,-0.000799191045712891,-3.43415968131206e-05,-1.19530063588119e-05
0.00170903216058208,-0.0007990837573459,-3.48913442999149e-05,-1.04512338881453e-05
0.0017080188815605,-0.000801765966520665,-3.50130934121409e-05,-1.30708347377705e-05
0.00170667181650828,-0.000810372877739243,-3.63119067122892e-05,-2.09675548521123e-05
0.00170748243972554,-0.000822389174842189,-3.59021574603492e-05,-3.01024196369516e-05
0.00171211968136547,-0.000826561500225157,-3.08366970453426e-05,-3.58362893671689e-05
0.0017205358577094,-0.000829553653571227,-2.30445004918289e-05,-3.77960966914921e-05
0.00172470818309237,-0.000833976318477173,-1.74912666935593e-05,-3.96084462367784e-05
0.00172697315972883,-0.000837016155541906,-1.60313158181239e-05,-4.34579571520155e-05
0.0017280937271174,-0.00083959107634968,-1.53309674968552e-05,-4.62670098884402e-05
0.00173099051302615,-0.000838208248508468,-1.11193941030192e-05,-4.33314309988118e-05
0.0017399192893457,-0.000831282188372742,-2.71692707402075e-06,-3.50527297470106e-05
0.00174990902840549,-0.000821757365569911,7.19921021193866e-06,-2.70320277719293e-05
0.0017581225489451,-0.000818061877373569,1.5732834434206e-05,-2.31888760847961e-05
0.00176402340912958,-0.00081876521222384,2.15927752537445e-05,-2.22262073226671e-05
0.00176678906481201,-0.000818598319208522,2.48449667636757e-05,-2.20146052249999e-05
0.00176858912519152,-0.000817871142498919,2.62664525388353e-05,-2.33658637926348e-05
0.00176899443680015,-0.000822472621349849,2.67659458940425e-05,-2.66373266893897e-05
0.00176826726009055,-0.000824344207307351,2.64159813378571e-05,-2.82891005150803e-05
0.00176563273463444,-0.000820386458658365,2.39988646290074e-05,-2.51754416036711e-05
0.00176066170696388,-0.000814104128724583,1.84384405024616e-05,-1.98920264194063e-05
0.00175262700036925,-0.000811040449800518,1.10401853604893e-05,-1.6996769161839e-05
0.00174698840063741,-0.0008101106172866,5.38877470642338e-06,-1.53747235216939e-05
0.00174559365186653,-0.000802338171144615,3.9520119784059e-06,-9.87823253647813e-06
0.00174658308902878,-0.000792670297185796,4.98917009543101e-06,-4.03880900294205e-07
0.00174553404721821,-0.000784921692903143,4.0376780878409e-06,6.569941226293e-06
0.00174043188932132,-0.000783836888303571,-1.04263266940341e-06,7.1868468343685e-06
0.00173383961521623,-0.000783824967373906,-7.47819124416907e-06,5.77869073609601e-06
0.00173063288513618,-0.000780212925685222,-1.09102822547893e-05,8.31153391900093e-06
0.00173082362001083,-0.000773143814393509,-1.05414231968633e-05,1.4360753589486e-05
0.00173172961066542,-0.000767684028606655,-9.59054921071007e-06,1.91771078283502e-05
0.00173057328048785,-0.000764572665963928,-1.0892238573254e-05,2.05769608434382e-05
0.00172772417829777,-0.0007645130613156,-1.36889813184339e-05,1.97099562986205e-05
0.00172606716907425,-0.000765109107798881,-1.52394901819745e-05,1.71890881382388e-05
0.00172759304807145,-0.000768888042502883,-1.4175582991745e-05,1.30077972791073e-05
0.00172994147121557,-0.00077123646564701,-1.1349720283755e-05,9.47260356707777e-06
0.00173321972687362,-0.000768291996019601,-8.36282068040081e-06,9.8110263634549e-06
0.00173554430815842,-0.000763964698550981,-6.28295045243909e-06,1.33157273256225e-05
0.00173664103368765,-0.00076173548470351,-5.17818143133212e-06,1.53011205847562e-05
0.0017375947080609,-0.000761711642844179,-4.02083352306573e-06,1.29081395948851e-05
0.00174043188932132,-0.000764358089229947,-1.53372120417365e-06,8.31353006356763e-06
0.00174478302864927,-0.000767195270490364,2.26564907247666e-06,5.16799338958671e-06
0.00174790631222166,-0.000767135665842036,6.08572063493716e-06,4.31011919513415e-06
0.00175182829808165,-0.000764477298526603,9.4108782777612e-06,4.38718122558195e-06
0.00175572644208231,-0.000763416335786363,1.31571594247396e-05,4.51256613186577e-06
0.0017600656604806,-0.000763046786966728,1.71212799145267e-05,4.24599936011156e-06
0.00176088820462753,-0.000763928935761984,1.8380221749473e-05,2.27294539307365e-06
0.00175766955361781,-0.000766539619358755,1.45573409122699e-05,-2.55815663820418e-06
0.0017513276190357,-0.000772619293488222,7.94196611369257e-06,-8.95613135769761e-06
0.00174710760993407,-0.000776600883996539,3.67183970805653e-06,-1.35312879819481e-05
0.00174720297737139,-0.00077499155849168,3.66741111349817e-06,-1.38450203195026e-05
0.0017486573307906,-0.000771355674943666,4.87509933566749e-06,-1.04349071658817e-05
0.00174825201918197,-0.000765991256594137,4.0877605113373e-06,-5.71878493570444e-06
0.0017463685122948,-0.000760066554550323,1.8591431467482e-06,-1.54494098617334e-06
0.00174435387518131,-0.000757443950023886,2.81855940024398e-07,1.80777597952617e-06
0.00174410353565833,-0.000753891512983531,-6.79340264950697e-07,4.41236325370889e-06
0.0017429352845511,-0.000751638457276729,-2.35811693953898e-06,5.07664910303217e-06
0.00174040804746199,-0.000755965754745349,-4.43403214232974e-06,1.96221182801096e-06
0.00174005041957202,-0.000761401698672873,-5.35040876838042e-06,-4.412264006975e-06
0.00174044381025099,-0.000766384647273102,-5.01673473602124e-06,-9.5993593308889e-06
0.00174132595904624,-0.000765144870587878,-4.74405954402425e-06,-8.59176576204061e-06
0.00174115906603092,-0.000757956549999508,-4.68063300550048e-06,-1.29725865410342e-06
0.00174229155434916,-0.000750553652677158,-3.63209825967448e-06,6.98067157711658e-06
0.00174460421470429,-0.000745189234327628,-1.86406672116739e-06,1.15514255911007e-05
0.00174475918678994,-0.000743639513471097,-1.9971020192499e-06,1.3305758681706e-05
0.00174025307537634,-0.000742113634473898,-5.95855600954445e-06,1.62018283532318e-05
0.00173462639657416,-0.00073726181609999,-1.22908350236916e-05,2.14075964878402e-05
0.00172928582008396,-0.000731551690790158,-1.76651170297169e-05,2.6570042625588e-05
0.00172655592719054,-0.000729513211817337,-2.04336651432611e-05,3.01268857430408e-05
0.001725077731912,-0.000727939649101475,-2.17778930705481e-05,3.28966314148761e-05
0.00172368298314112,-0.000726342244526282,-2.37214635257524e-05,3.46698309691948e-05
0.00172028551818642,-0.00072890524440439,-2.6748370695186e-05,3.26455685817577e-05
0.00171757946715233,-0.000737714811427284,-2.92421287221675e-05,2.55964192559491e-05
0.00171909342521986,-0.000747203871441118,-2.88048472355631e-05,1.73229088283816e-05
0.00172253857389322,-0.000751614615417398,-2.42216702990556e-05,1.30081091073123e-05
0.00172996531307491,-0.000753235861851922,-1.64496784741769e-05,1.32119148330168e-05
0.00174031268002466,-0.000753617331601222,-7.73288455068839e-06,1.42306547840933e-05
0.00174677382390343,-0.000755000159442434,1.70447558893631e-07,1.36419587813229e-05
0.00175286541896256,-0.000758159205803824,6.73832686952769e-06,1.23043009821621e-05
0.00175876627914705,-0.000760221526635976,1.20890014677595e-05,1.08631793523874e-05
0.00176374922774727,-0.000765240238025203,1.6457095619649e-05,7.82510968287718e-06
0.00176558505091578,-0.000772202060949925,2.03489028172257e-05,2.51365384424091e-06
0.00176993619024373,-0.000778067158345411,2.43711146811296e-05,-2.82773490074299e-06
0.00177485953419563,-0.000782954739508315,2.84102986020117e-05,-5.91810382124758e-06
0.00177658806899715,-0.000786626385845326,3.1493672879297e-05,-7.59489376798491e-06
0.00177732716663642,-0.000790202664745013,3.29152889280862e-05,-1.02432638881143e-05
0.00177781592475271,-0.000795829343547186,3.30523995565441e-05,-1.46756220692659e-05
0.00177706490618377,-0.000803065347854218,3.2603983841789e-05,-2.03832178742973e-05
0.00177519332022627,-0.000811994124173768,3.15333772138439e-05,-2.70941394848371e-05
0.00177239190175485,-0.000819075156395147,2.95237868698075e-05,-3.36226179630432e-05
0.00177047263207869,-0.000822722960872827,2.72134348900554e-05,-3.66502117174145e-05
0.00176821957637188,-0.000822866012028814,2.59682104313168e-05,-3.37802664064373e-05
0.00176785002755225,-0.000816977072773997,2.60538311756671e-05,-2.72129131418406e-05
0.00176702748340532,-0.000811147738167509,2.56863064651068e-05,-2.13231231497065e-05
0.00176323662777165,-0.000808692026656391,2.25889521403003e-05,-1.68417543313714e-05
0.00175662051180723,-0.000804781961726067,1.64047119061942e-05,-1.07921736252567e-05
0.0017490745633289,-0.000795805501687855,9.05175420441897e-06,-2.47639889652598e-06
0.00174118290789025,-0.000790059613589025,2.59103568311283e-06,4.3367997162182e-06
0.00173561583373641,-0.0007899642461517,-2.77527803889669e-06,6.75327503010266e-06
0.00173009644330123,-0.000790071534518691,-8.24231420602323e-06,6.82004122728732e-06
0.00172289620178319,-0.000788807915974135,-1.43715435865548e-05,7.77365414593571e-06
0.00171574364398382,-0.000789368199668419,-2.02658567779304e-05,9.08849538401771e-06
0.00171182165812383,-0.000790894078665619,-2.47938738019402e-05,8.52336346362374e-06
0.00170781622575618,-0.000791835832109203,-2.78461122629871e-05,6.99265329747055e-06
0.00170457373288713,-0.000792014646054187,-2.9943016019061e-05,7.30302427829166e-06
0.00170298824924161,-0.00079216961813984,-3.12026408320106e-05,8.67773577097065e-06
0.00170290480273395,-0.000793826627363361,-3.13372870011466e-05,6.59652164850432e-06
0.00170277367250762,-0.000801277208404375,-3.02497625987723e-05,-1.17826451222567e-06
0.00170452604916847,-0.000812399435782399,-2.78781514403893e-05,-1.16169246785429e-05
0.00170867453269211,-0.000822150756248877,-2.37496365570876e-05,-2.05861236100612e-05
0.00171399126732297,-0.000827217151356766,-1.76282014056874e-05,-2.71916971978182e-05
0.00172052393677973,-0.000833034565033589,-1.05933223596808e-05,-3.24083599935013e-05
0.00172628174580823,-0.000836944629963912,-4.52978792355669e-06,-3.59505860024429e-05
0.00172982226191892,-0.000836718132300265,-2.8918690899379e-07,-3.69267418132217e-05
0.00173307667571763,-0.000836086323027988,2.88844162433089e-06,-3.60039678577982e-05
0.00173543701979143,-0.000833451797571885,5.93140467057662e-06,-3.42965592271404e-05
0.00173788081037288,-0.000830233146562168,8.82959623354242e-06,-3.08745341334511e-05
0.00174032460095433,-0.000822341491123527,1.1344983236372e-05,-2.39683180268292e-05
0.00174273262874679,-0.000812375593923068,1.37411057853588e-05,-1.45697358243007e-05
0.00174406777286933,-0.00080349450132218,1.58859276262543e-05,-6.35159765411406e-06
0.00174443732168897,-0.000798142003902316,1.64162465848593e-05,-1.35514933730179e-06
0.00174273262874679,-0.000793850469222693,1.41012444955843e-05,2.17584479755165e-06
0.00173794041502121,-0.000787544297429579,9.90700563416525e-06,6.68940652041131e-06
0.00173373232684924,-0.000782918976719318,6.59193947787578e-06,1.21291507453003e-05
0.00173468600122249,-0.000775659130552955,6.00975625922153e-06,1.76480534342469e-05
0.00173542509886176,-0.000767183349560699,7.50253084639717e-06,2.472537168657e-05
0.00173642645695367,-0.000757062480274587,9.02593069873629e-06,3.52626536410655e-05
0.00173726092203027,-0.00074406866693906,9.04495227105318e-06,4.6396394567994e-05
0.00173553238722875,-0.000739061876479499,7.07502656955849e-06,5.05693462130156e-05
0.00173131237812712,-0.000746059462193218,3.22372005951221e-06,4.31306362925592e-05
0.00172610293186324,-0.000759506270856039,-2.09206456212085e-06,2.82878391236472e-05
0.00172058354142806,-0.000772154377231263,-8.30075588798545e-06,1.48194224121208e-05
0.00171425352777562,-0.000779831455935923,-1.50777207000975e-05,6.34518742104827e-06
0.00170609961188433,-0.000786674069563989,-2.24493981929713e-05,-1.31590346945759e-06
0.00169951925870891,-0.000796556520256789,-3.01716630409804e-05,-1.25914476932149e-05
0.00169307003575981,-0.000808727789445388,-3.7181490206103e-05,-2.4978826235555e-05
0.0016878725104256,-0.000814116049654248,-4.19748945578303e-05,-3.16312519023413e-05
0.00168693075698201,-0.000811266947464165,-4.3433088362129e-05,-2.93731815937958e-05
0.00169041166844438,-0.000802135515340299,-4.11675844123298e-05,-2.13631780937843e-05
0.00169554958913026,-0.000792896794849443,-3.54363003696116e-05,-1.23331687914049e-05
0.0017045498910278,-0.000783574627850927,-2.71380604500124e-05,-4.07977589425548e-06
0.00171499262541489,-0.000775003479421346,-1.76804226290498e-05,3.64019379274353e-06
0.00172419558311674,-0.000768506572753583,-8.35363453934928e-06,1.01944136582638e-05
0.00173307667571763,-0.000763642833450009,2.40206651451041e-07,1.39058140122365e-05
0.00174210081947451,-0.000763022945107397,7.97509153130428e-06,1.39297435491211e-05
0.00174845467498628,-0.000766122386820459,1.46447998367065e-05,1.10518437954866e-05
0.00175461779562341,-0.000769126461096195,1.99881701700055e-05,7.08420794798803e-06
0.00175898085588103,-0.000771415279591994,2.40757727122933e-05,4.20757545138481e-06
0.00176262866035871,-0.000771832512130291,2.71536271683232e-05,4.19317176088414e-06
0.00176539431604113,-0.000768280075089936,2.9174791533576e-05,7.25827179052309e-06
0.00176594267880575,-0.000762820289303081,3.0073579800208e-05,1.19212546865572e-05
0.00176740895315462,-0.000758862540654095,3.0501194046564e-05,1.64645415208799e-05
0.00176874409727717,-0.000755357787332403,3.14664503562272e-05,1.99609014839143e-05
0.00177044879021935,-0.000753009364188275,3.28293585920318e-05,2.14736366625327e-05
0.00177038918557103,-0.000755572364066384,3.28427953337286e-05,1.95595764985952e-05
0.00176841031124653,-0.000761342094024544,2.99159081387317e-05,1.40492196149976e-05
0.00176296244638934,-0.000767302558857355,2.44826125397497e-05,7.67975915542618e-06
0.00175771723733647,-0.000770926521475704,1.84337561684006e-05,4.2336992832654e-06
0.00175150643298068,-0.000771093414491022,1.30097161712911e-05,4.96819523010885e-06
0.00174758444712069,-0.000767850921621974,8.12347840636519e-06,8.10138116758997e-06
0.00174391280078368,-0.000763917014832319,3.58156420483287e-06,1.15628467766373e-05
0.00173895369404278,-0.000762867973021744,-2.72615344047285e-07,1.44130674331034e-05
0.00173611651278237,-0.000761640117266185,-3.57722530393025e-06,1.53374484214836e-05
0.00173298130828031,-0.000764679954330918,-7.51462884852747e-06,1.22110076338596e-05
0.00172743807598579,-0.000773048446956184,-1.29032379741715e-05,4.92844497050974e-06
0.001721334559997,-0.000781583832596769,-1.88186593645415e-05,-2.87276304855902e-06
0.0017159224579288,-0.000785899209135724,-2.35536775283382e-05,-7.27361008595539e-06
0.00171482573239957,-0.00078784232067122,-2.64647049035626e-05,-8.74543787046683e-06
0.00171273956970808,-0.000791084813540269,-2.77317322820061e-05,-1.10100585539817e-05
0.00171247730925544,-0.000796115445859161,-2.66630059574419e-05,-1.51241274988232e-05
0.00171858082524424,-0.00079772477136402,-2.19246484863264e-05,-1.73237873019481e-05
0.00172687779229151,-0.00079571013425053,-1.39184187591532e-05,-1.40762738615043e-05
0.00173399458730189,-0.000790166901956016,-5.44234692116924e-06,-7.15815977299005e-06
0.00174018154979834,-0.000783550785991596,1.02314228294089e-06,-1.52853397953105e-06
0.00174593935882684,-0.000783169316242296,5.63490140689585e-06,5.55259585607162e-07
0.00174922953541455,-0.000783610390639924,9.73453781653799e-06,7.19513864903923e-07
0.00175192366551898,-0.000783479260413602,1.32347961083181e-05,4.61449033413629e-07
0.00175414095843678,-0.000786447571900342,1.52016662957893e-05,-7.88360894451957e-07
0.00175526152582535,-0.000788843678763132,1.63702985369289e-05,-2.91948381862661e-06
0.00175715695364219,-0.000789237069442097,1.87530478109487e-05,-3.65250533134397e-06
0.00176042328837057,-0.000788998650848785,2.23207467471579e-05,-1.925727582191e-06
0.00176163922319646,-0.000788557576451157,2.4104488289848e-05,-5.93097124363964e-07
0.001759302720982,-0.000789952325222035,2.1723758569926e-05,-2.99070940099138e-06
0.00175411711657745,-0.000796246576085483,1.6415063480699e-05,-7.96264272384509e-06
0.00174782286571401,-0.000800478506116778,1.13305776872765e-05,-1.11801554909239e-05
0.00174409161472867,-0.000800085115437812,7.91630718624965e-06,-1.10665525593922e-05
0.00174204121482618,-0.000799369859657875,5.30373276477182e-06,-1.05758605497791e-05
0.00173882256381646,-0.000803160715291543,2.41811889015353e-06,-1.26812167158439e-05
0.00173363695941192,-0.000807178068588857,-8.56510525592e-07,-1.66750069724321e-05
0.0017314911920721,-0.000809776831255962,-4.2161761821325e-06,-2.0003918014716e-05
0.00172840367128871,-0.000812768984602033,-7.28713227172119e-06,-2.17313124251829e-05
0.0017243505552024,-0.000814104128724583,-9.60517488345369e-06,-2.2720561631865e-05
0.00172319422502483,-0.000814640570559536,-1.11854887387898e-05,-2.35892449836119e-05
0.00172208557856593,-0.000814855147293517,-1.25698174075846e-05,-2.36037440968708e-05
0.00172036896469408,-0.000812566328797717,-1.32780084787498e-05,-2.08086701740195e-05
0.00172228823437025,-0.000805032301249045,-1.12895875136046e-05,-1.2922685197933e-05
0.00172747383877479,-0.000791227864696256,-6.02017808311309e-06,3.58222429808513e-07
0.00173224221064104,-0.000776350544473561,-1.06401531043935e-06,1.52954686650248e-05
0.00173174153159508,-0.000766646907725746,-1.20737251521697e-06,2.61412045990996e-05
0.00172648440161254,-0.00076135401495421,-6.41431689868955e-06,3.04331609184561e-05
0.00172123919255967,-0.000761175201009226,-1.15077288791406e-05,3.0790592017459e-05
0.00171966562984381,-0.000761902377718829,-1.28422999522292e-05,3.03890744074104e-05
0.00171998749494478,-0.000763607070661012,-1.26900919460707e-05,2.85919496409094e-05
0.00171707878810637,-0.000769567535493823,-1.52493032454892e-05,2.28448568797177e-05
0.00171149979302286,-0.000778555916461701,-2.06059993905057e-05,1.3107268801175e-05
0.00170762549088153,-0.000790083455448356,-2.52735748429937e-05,1.86976621188196e-06
0.00170470486311345,-0.000801980543254646,-2.72864622806295e-05,-9.24784747604223e-06
0.00170419226313783,-0.000812315989274739,-2.76854945106305e-05,-2.03308607269347e-05
0.00170606384909534,-0.000821685839991918,-2.72164359263843e-05,-3.09350824191974e-05
0.00170762549088153,-0.000832164337167998,-2.44617181410738e-05,-3.92747830773262e-05
0.001713669402222,-0.000835967113731331,-1.81501314023553e-05,-4.36966464204284e-05
0.00172400484824209,-0.000834047844055166,-9.46850599525779e-06,-4.34028706939618e-05
0.00173155079672043,-0.000830256988421499,-9.97195688959479e-07,-3.82510389832644e-05
0.00173829804291117,-0.000821721602780914,5.65607445645229e-06,-2.97418918339834e-05
0.00174336443801906,-0.000813448477592973,1.04948349142934e-05,-2.15679157217434e-05
0.00174765597269869,-0.00080763106391615,1.42717902439305e-05,-1.67128969495028e-05
0.001751637563207,-0.000805449533787342,1.76701286191856e-05,-1.40182195223599e-05
0.00175343762358651,-0.000802028226973309,2.09218951489486e-05,-9.72701130784555e-06
0.00175800333964845,-0.000793540525051387,2.38923122686657e-05,-2.09282875775599e-06
0.00176128159530649,-0.000782918976719318,2.66876655377847e-05,8.04160941458539e-06
0.00176371346495828,-0.000770652340093394,2.98239511275846e-05,2.06850237011831e-05
0.00176739703222495,-0.000755977675675015,3.3127603032457e-05,3.68823294294075e-05
0.00176955472049443,-0.000736403509164066,3.4862171883109e-05,5.45330820636542e-05
0.00176869641355851,-0.000723326249320879,3.30458500189e-05,6.77431107511771e-05
0.00176267634407737,-0.000719773812280524,2.76752541916529e-05,7.26056446039826e-05
0.00175576220487131,-0.000721240086629396,2.08014295452039e-05,7.11428365107215e-05
0.00175063620511509,-0.000723791165577839,1.45483350612792e-05,6.74940605950182e-05
0.00174654732623978,-0.000729048295560378,9.98006350807182e-06,6.27162529631883e-05
0.00174337635894873,-0.000737118764944003,7.44470544779022e-06,5.58008393918582e-05
0.00174214850319317,-0.000745117708749635,6.28375258019779e-06,4.73021215373583e-05
0.00174123059160892,-0.000753665015319885,3.98312557615684e-06,3.83595008379455e-05
0.0017353774151431,-0.000765228317095537,-2.46737585808987e-06,2.74596571322472e-05
0.00172268162504921,-0.000781011627972819,-1.32351032749552e-05,1.20658606230711e-05
0.00171254883483343,-0.000799858617774166,-2.47624742739025e-05,-6.43029188889726e-06
0.00170545588168239,-0.000815224696113151,-3.31535404358857e-05,-2.25042404154342e-05
0.00169999609589553,-0.00082499985843896,-3.75048486074516e-05,-3.19744553966763e-05
0.00169785032855572,-0.000830340434929158,-3.91604712493668e-05,-3.55512973142633e-05
0.00169934044476393,-0.000829994727968855,-3.90996042771299e-05,-3.65168830062336e-05
0.00170116434700277,-0.000830328513999493,-3.75890287954426e-05,-3.70072469261423e-05
0.00170222530974301,-0.000832283546464655,-3.54260560991844e-05,-3.73229904097228e-05
0.00170429955150482,-0.000832164337167998,-3.34878734343722e-05,-3.71340735413455e-05
0.0017079473559825,-0.000830078174476515,-3.10993320657069e-05,-3.63569009983772e-05
0.0017117620534755,-0.000830864955834446,-2.65067854808417e-05,-3.57179414312413e-05
0.0017186642717519,-0.000832402755761311,-1.92587138921177e-05,-3.65108970856391e-05
0.00172739039226713,-0.000833368351064226,-1.08138230650813e-05,-3.85069026133873e-05
0.00173615227557136,-0.000833499481290548,-2.55259352822027e-06,-3.84647587790005e-05
0.00174318562407408,-0.000829732467516212,5.39586597068648e-06,-3.30613772040208e-05
0.00175077925627108,-0.000819397021496118,1.28822622546975e-05,-2.37758587701484e-05
0.00175691853504887,-0.000812053728822096,1.89278030921659e-05,-1.62591194308682e-05
0.00176107893950218,-0.000809562254521981,2.33977463771918e-05,-1.33768437090599e-05
0.0017657877067201,-0.000808107901102775,2.82504689802393e-05,-1.11638669244859e-05
0.00177230845524719,-0.000800550031694772,3.5310663491879e-05,-4.11983985181028e-06
0.00178028355719349,-0.000788927125270791,4.31412075741542e-05,6.81039704013592e-06
0.00178487311511476,-0.000782883213930321,4.78422277030984e-05,1.44609417936279e-05
0.00178323994775057,-0.000783789204584909,4.72314917533243e-05,1.37644821762648e-05
0.00177887688749295,-0.000787961529967876,4.2893222170153e-05,7.61955130911138e-06
0.00177418004120469,-0.000793278264598743,3.76775259810532e-05,3.63851242877172e-06
0.00176750432059195,-0.000791609334445556,3.25422916859878e-05,6.39449007512264e-06
0.00176129351623616,-0.000782930897648984,2.67582313137969e-05,1.36987150812149e-05
0.00175558339092632,-0.000776302860754899,2.01359939356494e-05,1.9593454828204e-05
0.00174782286571401,-0.000777554558369789,1.36775616436715e-05,2.00487777215096e-05
0.00174136172183524,-0.000781619595385766,8.3281760645242e-06,1.60671311756131e-05
0.00173810730803652,-0.000783658074358587,4.10525061971061e-06,1.20037430270459e-05
0.0017330885966473,-0.000785493897527092,3.7096917137898e-07,1.10889264214245e-05
0.00172868977360068,-0.000785160111496455,-3.69225067415257e-06,1.25439508819082e-05
0.00172352801105547,-0.00078305010694564,-8.57733274480092e-06,1.30465903551765e-05
0.00171704302531737,-0.000785434292878764,-1.37825612112853e-05,1.05816564271144e-05
0.00171362171850334,-0.000790524529845984,-1.81705083952304e-05,6.09543939222534e-06
0.00170860300711411,-0.00079494719475193,-2.17950418543692e-05,1.41222163950296e-06
0.00170282135622629,-0.000798964548049244,-2.65322792945313e-05,-3.17787453171456e-06
0.0016965390262925,-0.000804078626875795,-3.3405283895041e-05,-8.1422053964961e-06
0.00168954144057878,-0.000807726431353475,-3.98243391605117e-05,-1.22269799120864e-05
0.00168685923140402,-0.00080847744992241,-4.1511232946007e-05,-1.27065306356955e-05
0.00169042358937404,-0.000804388571047102,-3.73549214035489e-05,-8.97887312480009e-06
0.00169744501694709,-0.000799644041040184,-3.0433154918436e-05,-4.60619562066706e-06
0.00170414457941917,-0.000798726129455932,-2.37458056846298e-05,-4.02945252284012e-06
0.00170906792337107,-0.000802743482753246,-1.70668432005393e-05,-7.37969221923193e-06
0.00171707878810637,-0.000804626989640414,-9.13546512341333e-06,-1.01230496799706e-05
0.00172601948535558,-0.00080254082694893,-8.58003486919989e-07,-8.27707243264377e-06
0.00173112164325247,-0.000796711492342442,5.73569828352223e-06,-2.52884640853785e-06
0.00173540125700243,-0.000790882157735953,1.05145294642273e-05,3.65863225801729e-06
0.0017407179916333,-0.000785517739386424,1.50322349299256e-05,8.48914425571587e-06
0.00174417506123633,-0.000780725525660844,1.97932026544481e-05,1.25933082451216e-05
0.00174834738661929,-0.000777685688596111,2.37205404378106e-05,1.61641654845217e-05
0.0017505646795371,-0.000776398228192224,2.62389615198544e-05,1.76622172169195e-05
0.00175188790272998,-0.00077719693047982,2.79781245944932e-05,1.58533892183527e-05
0.00175277005152524,-0.000781714962823091,2.89758107702593e-05,1.14978682752461e-05
0.00175187598180032,-0.000787162827680279,2.77422473903387e-05,6.29400838812207e-06
0.00174651156345079,-0.000791752385601543,2.30412352155468e-05,1.45508772009455e-06
0.00173900137776145,-0.000795376348219892,1.58657393919518e-05,-1.86504413780223e-06
0.00173295746642098,-0.000794243859901658,8.87052576971177e-06,-2.08706770007399e-06
0.00172741423412646,-0.000792229222788168,3.99540950106189e-06,1.37327336432707e-06
0.00172420750404641,-0.000786912488157301,9.62724951077974e-07,6.66318245532237e-06
0.00172181139718362,-0.000781822251190081,-1.88273971743134e-06,1.06068617921577e-05
0.00171849737873658,-0.000781714962823091,-5.4002292793947e-06,1.11008189835675e-05
0.00171487341611823,-0.00078612570679937,-8.79454312676544e-06,7.75791473898594e-06
0.00171233425809945,-0.000792229222788168,-1.14740047968355e-05,8.31898172968753e-07
0.00170929442103472,-0.000802183199058962,-1.51344231957986e-05,-9.1700086601867e-06
0.00170207033765735,-0.000813806105482942,-2.22901321377654e-05,-2.07204988021438e-05
0.0016920329148789,-0.000825297881680601,-3.23730940451649e-05,-3.11499966747292e-05
0.00168399820828427,-0.000831294109302408,-4.10963932569487e-05,-3.78063732430529e-05
0.00168083916192288,-0.000832390834831645,-4.47053286513465e-05,-3.91906429511922e-05
0.00168179283629613,-0.000829339076837246,-4.32632334938128e-05,-3.52934990300243e-05
0.0016874552778873,-0.000821912337655564,-3.86545793016637e-05,-2.759088640104e-05
0.00169520388216995,-0.000812876272969024,-3.15728768835894e-05,-1.86744717926252e-05
0.00170387039803686,-0.000804710436148073,-2.27339737121142e-05,-1.09640345520339e-05
0.00171164284417885,-0.000799977827070822,-1.50894663160299e-05,-5.22147084439712e-06
0.00171688805323172,-0.00079571013425053,-1.12923024805068e-05,-5.10141163405628e-07
0.00171922455544618,-0.000790095376378022,-9.41853864814087e-06,4.36436271010589e-06
0.00172334919711049,-0.000784885930114146,-4.51138574328376e-06,9.79129127604697e-06
0.00173455487099617,-0.000780046032669904,5.24076159076231e-06,1.5686678163853e-05
0.00174685727041109,-0.0007736325725098,1.65144113149421e-05,2.20672727710926e-05
0.0017554522607,-0.00076614622867979,2.52767022400441e-05,2.86645699775332e-05
0.0017607570744012,-0.000761616275406854,3.03886182946395e-05,3.4335308350436e-05
0.00176401148819992,-0.000758802936005767,3.23184712023887e-05,3.77456568951992e-05
0.00176370154402861,-0.000756490275650637,3.14583732776575e-05,3.90002452437985e-05
0.00176182995807111,-0.000755870387308024,2.91708817390773e-05,4.00365985646503e-05
0.00176055441859689,-0.000754582926904137,2.78628092500593e-05,4.25796027408874e-05
0.00176194916736777,-0.000750494048028829,2.81443205796619e-05,4.56230902907808e-05
0.0017626644231477,-0.000750327155013511,2.7816742046214e-05,4.57821768446286e-05
0.00176014910698826,-0.000756001517534346,2.52125041184922e-05,4.08009576216628e-05
0.00175620327926894,-0.000765395210110856,2.15905178636016e-05,3.21855738954816e-05
0.00175528536768468,-0.000772202060949925,1.86645142092015e-05,2.34527152531716e-05
0.00175296078639989,-0.000780320214052213,1.59266376275346e-05,1.61022384265181e-05
0.00174932490285187,-0.000789570855472735,1.25067047482039e-05,8.64582835408125e-06
0.0017467499820441,-0.000796270417944814,9.7401804949124e-06,-1.37523370289792e-07
0.00174839507033796,-0.000804138231524124,9.29589016284857e-06,-8.48358377998447e-06
0.00174872885636859,-0.000811028528870852,1.00047175204078e-05,-1.34518605373899e-05
0.00174776326106568,-0.000811982203244102,9.01517309268202e-06,-1.498506523079e-05
0.00174481879143827,-0.000812625933446046,5.17826881651333e-06,-1.69782732136169e-05
0.00173928748007342,-0.000819754649386087,-9.34948787386776e-07,-2.38786099595269e-05
0.0017318726618214,-0.000833320667345563,-9.24054492248902e-06,-3.63444456839244e-05
0.00172075043444338,-0.0008462071923141,-1.96205683838073e-05,-5.02422286264239e-05
0.00171087990468025,-0.000855469754664287,-2.98401782720446e-05,-6.00034051980784e-05
0.00170589695608002,-0.00085821156848738,-3.68999306488281e-05,-6.32843469013624e-05
0.00170154581675207,-0.00085802083361273,-4.05187726552277e-05,-6.22731823436447e-05
0.00169823179830502,-0.000856399587178206,-4.27472389324261e-05,-6.02441146991766e-05
0.00169937620755292,-0.00085091595953202,-4.39712105276193e-05,-5.76539690406223e-05
0.00170131931908842,-0.000846791317867715,-4.19409345790338e-05,-5.27999136840859e-05
0.0017071844164839,-0.00084141497858852,-3.55179224305427e-05,-4.55944723501146e-05
0.0017151952812192,-0.000832212020886661,-2.71328915078546e-05,-3.84352647628826e-05
0.00172398100638276,-0.000825071384016954,-2.03286203387018e-05,-3.3001112777485e-05
0.00172754536435278,-0.000821781207429242,-1.62089545234252e-05,-2.85160462987843e-05
0.0017296196061146,-0.000818812895942503,-1.29501720486444e-05,-2.41871249603827e-05
0.00173631916858668,-0.000812900114828355,-7.51313672212729e-06,-2.08964789127569e-05
0.00174659500995845,-0.000808692026656391,2.42580916060548e-06,-1.85111397246306e-05
0.00175992260932461,-0.000807046938362535,1.64660799320466e-05,-1.36036001935849e-05
0.00177385817610372,-0.000795316743571564,3.06920160235142e-05,-2.69819702866672e-06
0.00178394328260084,-0.00077632670261423,4.03902802163792e-05,1.31885509099682e-05
0.00178827058006946,-0.00076078181033026,4.42624401350281e-05,2.97933664293039e-05
0.00178769837544551,-0.000747227713300449,4.47246015314881e-05,4.4492373823971e-05
0.00178645859876028,-0.000733721299989301,4.39377495799365e-05,5.70651520470867e-05
0.00178520690114539,-0.000722610993540942,4.1597885758762e-05,6.61851001181919e-05
0.00177994977116285,-0.000720679802935112,3.72611768805444e-05,6.88212860789398e-05
0.00177440653886834,-0.000726795239853575,3.23843911226825e-05,6.41649976966765e-05
0.00177059184137534,-0.000733757062778298,2.83895566892261e-05,5.55351851506129e-05
0.00176653872528903,-0.000740838094999677,2.45062073560526e-05,4.71692673742631e-05
0.00176099549299452,-0.000748372122548349,1.94337935999556e-05,4.09936482362847e-05
0.00175453434911575,-0.000752830550243291,1.38182177846366e-05,3.71541549815149e-05
0.0017501832097878,-0.000753319308359582,9.14638846134091e-06,3.52128026813256e-05
0.00174548636349954,-0.000754106089717513,5.20344071640233e-06,3.34452554158391e-05
0.00174028883816533,-0.000761103675431232,6.01884755027095e-07,2.9079217522983e-05
0.00173493634074547,-0.000767731712325317,-4.87860716921734e-06,2.09780192799442e-05
0.00172805796432841,-0.000777602242088451,-1.03985123950396e-05,1.07684645447633e-05
0.00172252665296356,-0.000788998650848785,-1.59506334277895e-05,2.74841788221351e-07
0.00171626816488911,-0.000799250650361219,-2.21880623695574e-05,-1.03426071259905e-05
0.00170818577457582,-0.000810372877739243,-2.86870508733692e-05,-2.06593008693831e-05
0.00170233259811,-0.000817787695991259,-3.43111475454262e-05,-2.83931742553178e-05
0.00169765959368107,-0.000821089793508637,-3.90740733927585e-05,-3.17742335862565e-05
0.00169218788696455,-0.000822258044615867,-4.35178932892852e-05,-3.18593617054799e-05
0.00168839703133089,-0.000820922900493318,-4.62279567221761e-05,-3.04352768647977e-05
0.0016901255661324,-0.000817883063428584,-4.44715462818732e-05,-2.7294447163199e-05
0.00169624100305086,-0.000812900114828355,-3.81634705759315e-05,-2.21134552975513e-05
0.00170179615627504,-0.000809335756858334,-3.09583305613908e-05,-1.75112439823065e-05
0.0017068387095236,-0.0008089662080387,-2.58920590925176e-05,-1.6822636692892e-05
0.00171064148608693,-0.000811243105604834,-2.16060186721948e-05,-1.91330597463719e-05
0.00171654234627142,-0.000812721300883371,-1.47287152695599e-05,-1.97275031428964e-05
0.00172609101093358,-0.00080953841266265,-4.87688892512374e-06,-1.59676312768666e-05
0.00173484097330814,-0.00080425744082078,4.80265239994748e-06,-1.00710415326881e-05
0.00174126635439791,-0.000799822854985169,1.16828559228484e-05,-5.32961365800399e-06
0.0017455698100072,-0.000796890306287426,1.62893866611314e-05,-2.03873241789909e-06
0.00174874077729826,-0.000794780301736611,2.07236452170398e-05,1.63841595157726e-06
0.00175420056308511,-0.000789451646176079,2.61615394432249e-05,6.80062507279833e-06
0.00175983916281695,-0.000783395813905943,3.25100271502108e-05,1.32762574312071e-05
0.00176541815790046,-0.000777494953721461,3.90892228296246e-05,2.04651769793618e-05
0.00177088986461698,-0.000771462963310657,4.45458735451108e-05,2.71632618086029e-05
0.00177298794823813,-0.000767076061193708,4.69644849445153e-05,3.14296480741055e-05
0.00176967392979109,-0.000767576740239664,4.53871014124207e-05,3.1930325761574e-05
0.00176591883694642,-0.000771510647029319,4.10867255388437e-05,2.90544499985653e-05
0.00176124583251749,-0.000776922749097511,3.64120112647795e-05,2.42437754011573e-05
0.00175542841884067,-0.000781130837269475,3.24196856465296e-05,1.91298613570707e-05
0.00175137530275436,-0.000787127064891283,2.84719079540619e-05,1.56952109959996e-05
0.00174766789362835,-0.00078756813928891,2.40471153458057e-05,1.55671444452699e-05
0.00174214850319317,-0.000784468697575849,1.96624642860535e-05,1.76962809891751e-05
0.00173678408484364,-0.000785601185894083,1.54570400574769e-05,1.79521546243694e-05
0.00173220644785204,-0.000792336511155159,1.00742521157595e-05,1.30550273782774e-05
0.00172414789939808,-0.000799381780587541,2.23039136521905e-06,4.7266367424559e-06
0.00171368132315167,-0.000806069422129954,-7.16666532717535e-06,-1.68107337419125e-06
0.00170480023055078,-0.000809299994069337,-1.59082351515797e-05,-2.90299553166642e-06
0.00169767151461074,-0.000807166147659191,-2.3424947321974e-05,-9.86721945883776e-07
0.00168920765454815,-0.000806510496527582,-3.1308796461396e-05,-7.24240989172381e-07
0.00168012390614294,-0.000811517286987143,-4.03974890859125e-05,-5.0577905602718e-06
0.00167118320889373,-0.000820839453985658,-4.87174764883845e-05,-1.33649330380986e-05
0.00166697512072176,-0.000830447723296149,-5.33880241030868e-05,-2.30261247927584e-05
0.0016665817300428,-0.000838470508961112,-5.37619369290595e-05,-3.15789839073376e-05
0.00166826258112565,-0.000845289280729847,-5.16883143454808e-05,-3.77225873939056e-05
0.00167057524148078,-0.000849616578198467,-4.93259215904834e-05,-4.13004810365282e-05
0.00167243490650862,-0.000850951722321017,-4.76363824594167e-05,-4.28354285980446e-05
0.00167431841339579,-0.000850367596767401,-4.6175070950992e-05,-4.30258176033889e-05
0.00167728672488253,-0.000850701382798039,-4.29582571015297e-05,-4.26186608046136e-05
0.00168437967803357,-0.00085167889903062,-3.52335396637911e-05,-4.26803103407352e-05
0.00169870863549165,-0.000852108052498582,-2.23652398315409e-05,-4.45014443022759e-05
0.00171267996505975,-0.000856363824389209,-7.97779291086012e-06,-4.84434430181945e-05
0.00172332535525115,-0.000860440782334851,2.73244547601068e-06,-5.25157072796217e-05
0.00172913084799831,-0.000861382535778435,8.3612266821535e-06,-5.27196042623059e-05
0.00173358927569325,-0.000853657773355113,1.22761228678964e-05,-4.58944862976884e-05
0.00173960934517439,-0.000839316894967371,1.7665157637821e-05,-3.25767005667348e-05
0.00174496184259426,-0.000824761439845648,2.36848931051915e-05,-1.6454379602643e-05
0.00174952755865619,-0.000808703947586056,2.78806333864856e-05,-7.76517422034585e-07
0.00175318728406353,-0.000792670297185796,3.04443068048308e-05,1.38555426557434e-05
0.00175670395831489,-0.000779008911788995,3.37000193681929e-05,2.77378142439928e-05
0.00176053057673756,-0.000767874763481305,3.83249840011904e-05,3.95407184459512e-05
0.00176550160440812,-0.000759756610379017,4.25067322418967e-05,4.71947342134442e-05
0.00176923285539346,-0.000754857108286447,4.45640516337746e-05,5.07560961059063e-05
0.00176774273918526,-0.000753736540897878,4.41705735962348e-05,5.25032525689146e-05
0.00176469098119086,-0.000752377554915998,4.10220552234364e-05,5.39480929416968e-05
0.00175998221397294,-0.000751638457276729,3.47473725801211e-05,5.42797822440576e-05
0.00175216208411229,-0.000752854392102622,2.68071926620117e-05,5.20952580509437e-05
0.00174537907513255,-0.000758099601155496,2.02231120297919e-05,4.71145948293718e-05
0.00174160014042855,-0.000765740917071159,1.60906643414139e-05,3.97312700547364e-05
0.00173851261964516,-0.000774407432938065,1.19527062199586e-05,3.06786047892282e-05
0.00173186074089174,-0.000782060669783394,4.98919120684589e-06,2.2075212599756e-05
0.00172219286693292,-0.00078727011604727,-4.48694391354951e-06,1.68773028488807e-05
0.0017128706999344,-0.000789833115925378,-1.40775096558549e-05,1.54913142320042e-05
0.00170586119329102,-0.00078977351127705,-2.25252570759805e-05,1.41419349144244e-05
0.00169805298436004,-0.000794649171510289,-3.00725795920252e-05,8.60930728871831e-06
0.00169141302653629,-0.000805330324490686,-3.64199835776466e-05,-9.09885873740525e-07
0.00168879042200985,-0.000814485598473883,-4.03642857027942e-05,-1.02526798136616e-05
0.00168793211507393,-0.000819063235465481,-4.13854080905873e-05,-1.6047136421682e-05
0.00168951759871945,-0.00082241301670152,-3.99359668512255e-05,-1.83404524665267e-05
0.00169332037528279,-0.000822186519037874,-3.60411521269428e-05,-1.89074499233454e-05
0.00170152197489273,-0.00082268719808383,-2.91504611473646e-05,-1.89459806261684e-05
0.00171048651400128,-0.000822627593435502,-1.98523282547581e-05,-1.87933975769774e-05
0.00171988020657779,-0.000821840812077571,-1.05539630785387e-05,-1.84298804479775e-05
0.00172767649457911,-0.000820541430744018,-3.73164160899002e-06,-1.7616728732591e-05
0.00173108588046347,-0.000820565272603349,6.40912314925608e-08,-1.61786296785033e-05
0.00173404227102055,-0.000818395663404206,2.34748830280322e-06,-1.41664693845763e-05
0.00173718939645227,-0.000813818026412608,5.35025250003899e-06,-1.12586047218487e-05
0.0017421723450525,-0.000810551691684228,1.03353820871731e-05,-6.75578826301439e-06
0.00174906264239923,-0.000806582022105576,1.64717793016606e-05,-1.22896073657181e-06
0.00175373564682815,-0.000800669240991428,2.1538534859815e-05,2.83657103900207e-06
0.00175737153037617,-0.000799369859657875,2.4501468634142e-05,3.85771842220274e-06
0.00175983916281695,-0.000801003027022065,2.69387120763374e-05,3.94017731432749e-06
0.00176359425566162,-0.000798690366666935,3.07534210870938e-05,6.63628091103621e-06
0.00176863680891018,-0.000791764306531209,3.49752815996132e-05,1.2156902396773e-05
0.00176966200886142,-0.000786757516071648,3.65852043614557e-05,1.71249906406557e-05
0.00176794539498957,-0.000786948250946298,3.44400303822039e-05,1.90284181599041e-05
0.0017645717718942,-0.000787019776524292,3.03689063254666e-05,1.83051147413762e-05
0.00175957690236431,-0.000788736390396141,2.61115812245226e-05,1.58361834883227e-05
0.00175542841884067,-0.000793087529724093,2.15816438338335e-05,1.163602077909e-05
0.00175161372134767,-0.000799059915486569,1.70448169961422e-05,7.19367315141235e-06
0.0017482758610413,-0.000800466585187112,1.40922028082905e-05,5.75373223724335e-06
0.00174604664719383,-0.000796735334201773,1.20609885789228e-05,7.79538408334207e-06
0.00174049149396965,-0.000796628045834782,5.86367316822407e-06,8.59925767085992e-06
0.0017262579039489,-0.000804233598961448,-8.74781706294353e-06,3.17119950289205e-06
0.00170612345374366,-0.000813579607819295,-2.82316642952905e-05,-7.76052714074473e-06
0.00169117460794297,-0.000823485900371426,-4.33025353419274e-05,-1.89817732198545e-05
0.0016867638639667,-0.000832748462721614,-4.87687323006194e-05,-2.65329728733347e-05
0.00168662081281071,-0.000837230732275887,-4.82539781305796e-05,-2.96583506931268e-05
0.00168704996627867,-0.000833535244079545,-4.77573155469837e-05,-2.85890730805276e-05
0.00168775330112894,-0.00082864766291664,-4.76776941940266e-05,-2.3968300672514e-05
0.00169121037073197,-0.000825250197961938,-4.41380573646174e-05,-1.82245222642874e-05
0.00169945965406058,-0.000820565272603349,-3.61891153410147e-05,-1.41568881028135e-05
0.00170742283507722,-0.000815737296088773,-2.7657952902226e-05,-1.15271975310562e-05
0.00171427736963495,-0.000812673617164708,-2.16530671212934e-05,-7.69324998310564e-06
0.00171945105310983,-0.000808787394093716,-1.66177263687361e-05,-2.28052847264062e-06
0.00172594795977759,-0.000803458738533183,-9.36000985529152e-06,1.39424873744261e-06
0.00173674832205464,-0.000803053426924552,2.19076503369625e-07,6.85720609793357e-07
0.00174537907513255,-0.000807118463940529,9.31158527433225e-06,-2.90413338176216e-06
0.00175156603762901,-0.000811457682338815,1.57226501365092e-05,-6.13456480156079e-06
0.00175644169786225,-0.000811457682338815,1.92831521895788e-05,-7.99498597409347e-06
0.00175678740482255,-0.000811433840479484,2.07037947390034e-05,-9.32423033591047e-06
0.00175783644663313,-0.000813150454351333,2.12172877510804e-05,-9.77898523058125e-06
0.00176023255349592,-0.000811147738167509,2.3065715846562e-05,-7.57978430214247e-06
0.00176478634862818,-0.000803697157126496,2.80211951909583e-05,-2.32340314604847e-06
0.00177214156223187,-0.000796461152819464,3.47865724922927e-05,3.60103771119679e-06
0.00177655230620815,-0.000795459794727552,3.95466352637096e-05,7.09060432659323e-06
0.00177730332477709,-0.000793528604121721,3.98629949804527e-05,7.29546439818572e-06
0.00177471648303965,-0.000792110013491512,3.66911193915969e-05,6.20600572957788e-06
0.00176948319491644,-0.000792980241357102,3.20220911659472e-05,6.48492096747299e-06
0.00176396380448126,-0.000790655660072306,2.63193556670412e-05,8.86244571346439e-06
0.00175771723733647,-0.000786268757955358,1.9398968678254e-05,1.17230040020926e-05
0.00175070773069309,-0.00078294281857865,1.20554974884777e-05,1.31363294327412e-05
0.00174260149852046,-0.000784754799887824,4.98468558937421e-06,1.27054237887043e-05
0.00173609267092303,-0.000785458134738096,-2.64590753920487e-06,1.10677678998157e-05
0.00172735462947813,-0.000786101864940039,-1.1479669336224e-05,8.55203461316957e-06
0.0017193556856725,-0.000789129781075107,-1.97169736851728e-05,5.68809866437781e-06
0.00171324024875404,-0.000789225148512432,-2.48818270167881e-05,4.60118250604632e-06
0.00171225081159179,-0.000785708474261074,-2.73920190956564e-05,7.90926807258906e-06
0.00170925865824572,-0.000777685688596111,-2.99424718605805e-05,1.54268686073321e-05
0.00170581350957236,-0.000767624423958327,-3.33548919816124e-05,2.31594486233849e-05
0.0017037869515292,-0.000765228317095537,-3.55567931264105e-05,2.64923753213272e-05
0.00170434723522349,-0.000768053577426289,-3.51511091330376e-05,2.37958412616908e-05
0.00170634995140731,-0.000772202060949925,-3.34908308189453e-05,1.65791589118348e-05
0.0017072559420619,-0.000782239483728378,-3.21739481723331e-05,7.23321979101867e-06
0.00170913944894907,-0.000792181539069506,-3.06974070664341e-05,-2.57451141034526e-06
0.00171169052789751,-0.000800406980538784,-2.79529034990267e-05,-1.22079125093035e-05
0.00171587477421014,-0.000809383440576997,-2.40543137089037e-05,-2.1792043694166e-05
0.00172108422047402,-0.000817990351795575,-1.90219407314687e-05,-3.11115186040781e-05
0.00172783146666476,-0.000826072742108866,-1.14769064118246e-05,-3.81750322244595e-05
0.00173932324286242,-0.000826001216530872,-8.44192920393805e-07,-3.99149965434606e-05
0.00175030241908445,-0.000820946742352649,1.02946469379266e-05,-3.55556836248675e-05
0.00175782452570346,-0.000815069724027498,1.83191425785004e-05,-2.85725216726188e-05
0.00176236639990606,-0.000809276152210006,2.2541128895503e-05,-2.37180403161286e-05
0.0017650247672215,-0.000806856203487885,2.51670395128672e-05,-2.22100464435122e-05
0.00176703940433499,-0.000806283998863935,2.77112656784455e-05,-2.1285821559361e-05
0.00176924477632313,-0.000804245519891114,2.94123934568244e-05,-1.85596553505229e-05
0.00176854144147285,-0.000799155282923894,2.9235423030973e-05,-1.50751092845406e-05
0.00176662217179669,-0.000797653245786026,2.76741157566576e-05,-1.31379627672597e-05
0.00176579962764976,-0.000797951269027666,2.60955507534103e-05,-1.24963939940661e-05
0.00176405917191858,-0.000795090245907917,2.5416608489061e-05,-1.03588773108957e-05
0.00176450024631621,-0.000789272832231094,2.56803625232672e-05,-4.95370762662495e-06
0.00176472674397986,-0.000783062027875306,2.6027787201021e-05,2.41425005653889e-06
0.00176341544171664,-0.000776541279348211,2.49898723928463e-05,9.24488117451717e-06
0.00175991068839494,-0.000770723865671388,2.16340012256366e-05,1.46062825376571e-05
0.00175439129795976,-0.000766503856569758,1.6500687480844e-05,1.91511898882291e-05
0.00174877654008726,-0.000763523624153353,1.09271367632935e-05,2.31564312988385e-05
0.00174332867523007,-0.000761592433547523,5.86598760864248e-06,2.59038512105459e-05
0.00173927555914376,-0.000759673163871358,1.93234714057564e-06,2.70648723603251e-05
0.0017368675313513,-0.000759995028972329,-4.0220696709001e-07,2.74808060922425e-05
0.00173399458730189,-0.000761652038195851,-2.00058249650196e-06,2.79199492162679e-05
0.00173172961066542,-0.000761318252165213,-5.57680988114995e-06,2.7840530737963e-05
0.00172309885758751,-0.000762927577670072,-1.30672758243108e-05,2.62442537252507e-05
0.00171248923018511,-0.000767517135591336,-2.26283260324115e-05,2.33941749914753e-05
0.00170658837000062,-0.000770986126124032,-3.00011682903419e-05,2.09025150243502e-05
0.00170220146788367,-0.000772142456301597,-3.2885442912198e-05,2.02619727497303e-05
0.00170254717484398,-0.000770509288937407,-3.23271434018872e-05,2.18733142041847e-05
0.00170515785844075,-0.000768983409940208,-2.99512583914195e-05,2.51709999369737e-05
0.00170844803502846,-0.000767135665842036,-2.60763149287931e-05,2.87535006228055e-05
0.00171310911852772,-0.000764799163627575,-2.10488036263089e-05,3.04479662533441e-05
0.00171831856479159,-0.000768017814637292,-1.60560647260427e-05,2.84453600477512e-05
0.00172212134135493,-0.000775277660803655,-1.12396875964486e-05,2.30791603032657e-05
0.00172896395498299,-0.000782120274431722,-4.80095367479516e-06,1.69524809505988e-05
0.00173790465223221,-0.000786840962579308,4.24696032045529e-06,1.26503975453265e-05
0.00174604664719383,-0.000790035771729694,1.35234028074176e-05,1.04315907244562e-05
0.00175228129340895,-0.000794100808745671,1.9237290223326e-05,8.44554276878063e-06
0.00175343762358651,-0.000797665166715691,2.02665989079515e-05,4.98401366791587e-06
0.00175113688416105,-0.00080330376644753,1.89399008145745e-05,1.87211541495266e-07
0.00174996863305382,-0.0008097291475373,1.79938492538071e-05,-4.34464684751145e-06
0.00175066004697442,-0.000812637854375711,1.78590565616154e-05,-7.31267863340845e-06
0.00174919377262555,-0.000815820742596432,1.69039622708233e-05,-8.99833974796429e-06
0.00174474726586028,-0.000819015551746818,1.35562408266301e-05,-1.07896394706721e-05
0.00174018154979834,-0.000821614314413924,8.14710611874745e-06,-1.34328115918557e-05
0.0017357588848924,-0.00082489257007197,3.03509823624171e-06,-1.59902238100863e-05
0.0017315627176501,-0.000828218509448678,6.62370147404068e-07,-1.68931312367109e-05
0.00173268328503867,-0.000827121783919441,1.23084595718396e-06,-1.59546228366367e-05
0.00173535357328377,-0.000825667430500235,2.77084917957338e-06,-1.48323915223423e-05
0.0017349244198158,-0.000828516532690318,3.66308050798189e-06,-1.53165507006717e-05
0.0017357231221034,-0.000831556369755052,4.17560964779422e-06,-1.76105989555975e-05
0.00173697481971829,-0.00083411936963316,5.04111851900796e-06,-2.06586202394406e-05
0.00173735628946759,-0.000838029434563484,5.67786457893876e-06,-2.37876269898674e-05
0.00173692713599963,-0.000842988541304382,4.86855763944273e-06,-2.73844618552911e-05
0.00173435221519185,-0.000847768834100296,2.30746733888229e-06,-3.19254177517991e-05
0.00172957192239594,-0.000852990201293838,-1.83213910347102e-06,-3.68943295030333e-05
0.00172439823892106,-0.000856900266224162,-8.19244232172378e-06,-4.09564926647312e-05
0.00171556483003884,-0.000860250047460201,-1.74223464063253e-05,-4.29191100387914e-05
0.00170319090504592,-0.000860178521882207,-2.81089790031864e-05,-4.23864757569855e-05
0.00169565687749725,-0.000856888345294496,-3.70496363156926e-05,-4.00457188759175e-05
0.0016916872079186,-0.000855314782578634,-4.21094882288223e-05,-3.78064014771407e-05
0.00168830166389356,-0.000856638005771518,-4.39055022920061e-05,-3.79544868960809e-05
0.00168845663597921,-0.000858533433588352,-4.43267386121908e-05,-4.08719047622785e-05
0.00168967257080511,-0.000861632875301413,-4.42254562999335e-05,-4.3564185371695e-05
0.00169066200796735,-0.000860047391655886,-4.28896918435571e-05,-4.17634407176351e-05
0.00169448862639002,-0.000851941159483263,-3.89291891825457e-05,-3.39204790472476e-05
0.00170258293763297,-0.000840234806551624,-3.11697502530392e-05,-2.18801297724389e-05
0.00171525488586753,-0.000825333644469598,-1.94013336301533e-05,-7.27661722379512e-06
0.00172899971777199,-0.000807392645322838,-4.96161478348382e-06,1.05249001831335e-05
0.00174422274495499,-0.000786197232377364,9.7410546318073e-06,3.11866827994795e-05
0.00175793181407045,-0.000768148944863614,2.28046081332243e-05,5.01752027714955e-05
0.00176815997172355,-0.000755381629191734,3.37673951373498e-05,6.20538495295621e-05
0.00177813778985368,-0.000750255629435517,4.276628686682e-05,6.65104932125082e-05
0.00178483735232576,-0.000749027773679958,4.92780554135775e-05,6.78470971466891e-05
0.00178756724521919,-0.000749290034132602,5.22937778840112e-05,6.81888313952893e-05
0.00178672085921293,-0.000751817271221713,5.15725787729015e-05,6.47047585217831e-05
0.00178490887790375,-0.00076020960570631,4.8224590056196e-05,5.50320931747929e-05
0.00177984248279586,-0.000773835228314115,4.40484394025238e-05,4.22564777533982e-05
0.0017760158643732,-0.000785195874285452,4.04904025702919e-05,3.1795906007278e-05
0.00177440653886834,-0.000788950967130122,3.79145502537688e-05,2.51768844325303e-05
0.00177237998082518,-0.00079505448311892,3.53191027474875e-05,1.94661579687495e-05
0.00176641951599237,-0.000804436254765764,3.08566767699914e-05,1.15842101634248e-05
0.00176011334419926,-0.000813233900858992,2.32932748269282e-05,7.35136929738695e-07
0.00175012360513947,-0.000826323081631844,1.32399324125112e-05,-1.22970201174078e-05
0.00173925171728442,-0.000839042713585062,2.68426448402491e-06,-2.53747557506388e-05
0.00173004875958256,-0.000848853638699868,-6.69372772144242e-06,-3.48446811808041e-05
0.00172245512738556,-0.00085140471764831,-1.43309313732108e-05,-3.78897078795962e-05
0.00171693573695038,-0.000848376801513243,-2.00970433623661e-05,-3.5565809323658e-05
0.00171269188598942,-0.000844585945879575,-2.38923778405392e-05,-3.16778225636233e-05
0.00171064148608693,-0.000841045429768886,-2.65256027966762e-05,-2.83821235252021e-05
0.00170696983974992,-0.000837755253181175,-2.99769960033704e-05,-2.46137311519777e-05
0.00170098553305778,-0.000830912639553108,-3.53668597225558e-05,-1.90847153909606e-05
0.00169651518443317,-0.00082499985843896,-4.08308835910613e-05,-1.29530368329375e-05
0.00169413099850005,-0.000821185160945961,-4.28376723324333e-05,-8.64005306399782e-06
0.00169643173792551,-0.0008188486587315,-4.00239293978459e-05,-7.00467278612172e-06
0.00170211802137601,-0.000818121482021897,-3.45342226532484e-05,-6.13787675298392e-06
0.00170824537922414,-0.000813853789201605,-2.88993256167139e-05,-2.28342081302603e-06
0.00171402703011197,-0.000803899812930811,-2.28040399404785e-05,7.6767823699909e-06
0.00172193060648028,-0.000789368199668419,-1.42393703730953e-05,2.31085820484111e-05
0.0017333985408186,-0.000772535846980563,-3.09322944368894e-06,3.87647954869033e-05
0.00174554596814787,-0.000762820289303081,8.14528588539478e-06,4.84442501537305e-05
0.00175331841428986,-0.000761973903296822,1.72924571434061e-05,5.00566672007334e-05
0.0017607570744012,-0.000765740917071159,2.43980350663076e-05,4.62362839373388e-05
0.00176657448807803,-0.000771498726099654,3.0062242516234e-05,4.01578291642982e-05
0.00177005539954039,-0.000778663204828692,3.33067565498565e-05,3.25067758738467e-05
0.00176935206469012,-0.000788784074114804,3.27518003198097e-05,2.31491177643956e-05
0.00176504860908083,-0.00079897646897891,2.94876752068232e-05,1.39202750448516e-05
0.00176389227890326,-0.000802886533909233,2.70053643434761e-05,7.86981883683423e-06
0.00176452408817554,-0.000805985975622295,2.75347418455115e-05,5.93004706811666e-06
0.00176509629279949,-0.000806975412784541,2.94171114773431e-05,5.5291143029346e-06
0.00176568041835311,-0.000809121180124353,2.9052259442806e-05,2.94738368167848e-06
0.00176147233018114,-0.000814986277519839,2.48895800289506e-05,-3.24458853157354e-06
0.00175517807931769,-0.000823235560848448,1.83735450964518e-05,-1.13047305450573e-05
0.00174777518199534,-0.000830912639553108,1.12570990262041e-05,-1.86842620234431e-05
0.00174014578700935,-0.0008374691508692,3.64300882156215e-06,-2.4698446619093e-05
0.00173196802925873,-0.000841689159970829,-4.7078936589219e-06,-3.03440259185224e-05
0.00172500620633401,-0.000847971489904612,-1.27020565276918e-05,-3.59864728723573e-05
0.00171765099273032,-0.000853276303605813,-1.90104460817922e-05,-4.04790079908801e-05
0.00171263228134109,-0.000854432633783378,-2.38364264739324e-05,-4.26094806598919e-05
0.0017102361744783,-0.00085350280126946,-2.77331016467468e-05,-4.19067817017075e-05
0.00170880566291843,-0.00084996228515877,-2.92677899114673e-05,-3.76256655681652e-05
0.00171024809540797,-0.000840497067004267,-2.6387443953727e-05,-2.89070194215812e-05
0.00171693573695038,-0.000829184104751593,-2.05591053970245e-05,-1.71870582148525e-05
0.0017223716808779,-0.000817930747147247,-1.69868224344798e-05,-6.60319071967871e-06
0.00171849737873658,-0.000811803389299118,-1.90528399313338e-05,-9.8104124962955e-08
0.00171343098362869,-0.000807547617408491,-2.41936464720288e-05,3.51925072256945e-06
0.00171213160229514,-0.000804317045469108,-2.71472129215673e-05,6.67735923713363e-06
0.00171302567202006,-0.000803041505994886,-2.60837959218374e-05,8.78927836335527e-06
0.00171476612775124,-0.000802111673480968,-2.343581258833e-05,7.71715483469651e-06
0.00171768675551932,-0.000805759477958648,-2.15052916407909e-05,4.48383106309705e-06
0.00171999941587445,-0.00080828671504776,-1.98680556567585e-05,3.01421390328721e-06
0.0017219902111286,-0.000805139589616036,-1.7365843888504e-05,4.85791665265777e-06
0.00172494660168568,-0.000801444101419693,-1.43150934213354e-05,7.15930678457254e-06
0.00172880898289734,-0.000803387212955189,-1.15392702734714e-05,6.72844342813951e-06
0.00173155079672043,-0.000806403208160592,-8.58938327805245e-06,3.62543856078178e-06
0.00173538933607276,-0.00080866818479706,-4.32070965555982e-06,-3.53641814020387e-07
0.00174186240088119,-0.000812566328797717,1.16388244936213e-06,-4.49311339871545e-06
0.00174651156345079,-0.000818157244810894,6.07819899982874e-06,-8.98618943375928e-06
0.00174909840518823,-0.000821912337655564,8.58455326505705e-06,-1.35061756667754e-05
0.00174919377262555,-0.000824677993337988,8.67781086727217e-06,-1.73327271687633e-05
0.00174925337727388,-0.000827300597864425,8.41990195878839e-06,-2.00107579300383e-05
0.0017508746237084,-0.000828945686158281,1.00240136438498e-05,-2.11604719527601e-05
0.00175398598635113,-0.000827789355980715,1.33852771089277e-05,-2.05821325637612e-05
0.00175646553972158,-0.000825846244445219,1.58934253480002e-05,-1.89105235678012e-05
0.00175641785600292,-0.000822567988787174,1.53115356845974e-05,-1.69865701741251e-05
0.0017531992049932,-0.000821411658609608,1.260015788782e-05,-1.43396881657998e-05
0.00175119648880938,-0.000816774416969682,1.11962294765852e-05,-9.64118714377716e-06
0.00175464163748274,-0.000807547617408491,1.35391799697996e-05,-2.76992828357747e-06
0.00175886164658437,-0.000800335454960791,1.87534852295729e-05,5.20489101100795e-06
0.00176327239056065,-0.000793135213442755,2.35439788215172e-05,1.41068926807642e-05
0.00176526318581481,-0.000780677841942182,2.50211592081458e-05,2.44828050259424e-05
0.00176297436731901,-0.000769937084313457,2.31746178931454e-05,3.48685044648593e-05
0.0017599941349026,-0.000764370010159612,2.11018739436051e-05,4.17625909283246e-05
0.00176129351623616,-0.00076230768932746,2.21077511506144e-05,4.36168834785232e-05
0.00176517973930715,-0.000762367293975788,2.58215993264079e-05,4.26943007328342e-05
0.00176570426021244,-0.000764334247370615,2.7960366674854e-05,4.13300080960244e-05
0.00176278363244436,-0.000767481372802339,2.49172365540617e-05,3.82242555493466e-05
0.00175608406997228,-0.000775289581733321,1.77560238750672e-05,3.0514263275526e-05
0.00174746523782404,-0.000787901925319548,1.04507912162732e-05,1.83654660981758e-05
0.00174127827532758,-0.000800097036367478,5.1441447998472e-06,5.54401255777743e-06
0.00173758278713124,-0.000810205984723925,9.43862838402545e-07,-3.99224467504751e-06
0.0017330170710693,-0.000815594244932785,-3.2331184208608e-06,-8.63640287170424e-06
0.00172795067596142,-0.000815808821666766,-6.86203309688659e-06,-8.92167608317358e-06
0.00172544728073163,-0.000812816668320696,-8.9708509670508e-06,-6.26605283908507e-06
0.00172563801560628,-0.000809145021983684,-9.22925236208905e-06,-1.86765657325335e-06
0.00172609101093358,-0.000804662752429411,-7.58423848201662e-06,3.83143400925957e-06
0.00172848711779637,-0.000797581720208032,-4.39592418726709e-06,1.03351236019002e-05
0.00173132429905679,-0.000791728543742212,-1.16593697588397e-06,1.58010578428671e-05
0.00173268328503867,-0.000791657018164218,3.30895893498714e-07,1.77942547006901e-05
0.00173151503393144,-0.000794398831987311,-3.02796869995284e-07,1.56891453382246e-05
0.0017277122573681,-0.000797581720208032,-2.70850017226857e-06,1.09057034984152e-05
0.00172300349015018,-0.000805687952380654,-7.45776981061188e-06,4.39074378763374e-06
0.00171587477421014,-0.000815558482143788,-1.46423376045258e-05,-4.09518556403819e-06
0.00170828114201314,-0.000824117709643704,-2.07933644035091e-05,-1.31466302390465e-05
0.00170841227223946,-0.000828921844298949,-2.03856226769656e-05,-1.84464155740108e-05
0.00171682844858339,-0.000829088737314268,-1.19124578765512e-05,-1.66048419883756e-05
0.00172753344342312,-0.000822138835319211,-3.47357540955858e-07,-9.31785275088459e-06
0.00173546086165076,-0.000814497519403548,7.88482589842828e-06,-1.88806272918221e-06
0.00173814307082552,-0.000810706663769881,1.07120272185468e-05,1.87028694255906e-06
0.00173667679647665,-0.00081193451952544,1.02117783380599e-05,2.08613635567097e-06
0.00173524628491678,-0.000813889551990601,8.85918674768918e-06,1.09426771382765e-06
0.00173436413612152,-0.000812971640406349,7.72535825496672e-06,5.52606162784659e-07
0.00173238526179703,-0.000814795542645189,6.68305964490801e-06,-2.88449791108434e-07
0.0017296911316926,-0.000820028830768396,4.53161805918786e-06,-4.11982610912868e-06
0.00172570954118428,-0.000828135062941018,9.88472030877076e-08,-1.23122665568133e-05
0.00172026167632709,-0.000836825420667256,-5.47537548318487e-06,-2.17528739906588e-05
0.00171552906724984,-0.000842523625047423,-9.18348816797871e-06,-2.70391684560471e-05
0.0017141223975493,-0.000844430973793922,-1.03730617591989e-05,-2.68819519773532e-05
0.00171289454179374,-0.000842046787860798,-1.26013909995674e-05,-2.57346575482691e-05
0.00170596848165801,-0.000842595150625417,-1.91580253811469e-05,-2.70828117246671e-05
0.00169608603096521,-0.000845003178417872,-2.83743286706781e-05,-2.78930001177292e-05
0.00168911228711082,-0.000840318253059283,-3.5792837119185e-05,-2.30964829186972e-05
0.0016855121663518,-0.000830698062819127,-3.958588577719e-05,-1.36843812223992e-05
0.00168477306871254,-0.000821638156273255,-4.11073858351048e-05,-6.13945415852804e-06
0.00168358097574597,-0.000821268607453621,-4.12455068340612e-05,-4.24527652533095e-06
0.00168565521750779,-0.000822997142255136,-3.95120676246615e-05,-5.36287341076709e-06
0.0016897440963831,-0.000821065951649305,-3.64614490619516e-05,-5.294450946338e-06
0.00169308195668947,-0.000818717528505178,-3.37940547336397e-05,-3.38383892844147e-06
0.00169409523571105,-0.000818109561092231,-3.14669213513203e-05,-1.62822831381314e-06
0.00169880400292897,-0.000818061877373569,-2.71409987342706e-05,-1.4007771212114e-06
0.00170958052334669,-0.000816619444884029,-1.91287155319163e-05,-2.42622103593986e-06
0.00171931992288351,-0.000817549277397947,-7.95471202286017e-06,-3.14134533795392e-06
0.00173199187111806,-0.000816547919306035,5.22697711155652e-06,-1.08437031039092e-06
0.0017483116238303,-0.000808787394093716,1.95315266678094e-05,5.38454309213165e-06
0.0017627359487257,-0.000798010873675994,3.32134236048568e-05,1.48639891660959e-05
0.00177301179009746,-0.000788629102029151,4.39330261254828e-05,2.37919627913693e-05
0.00177971135256954,-0.000783526944132265,5.10302622779546e-05,3.00431149533547e-05
0.00178678046386125,-0.000777268456057814,5.5724219269047e-05,3.42198975755533e-05
0.00178970109162933,-0.000773346470197825,5.84864290423577e-05,3.72098272108688e-05
0.00178868781260775,-0.00077219014002026,5.8270480940307e-05,3.83831294358951e-05
0.00178692351501724,-0.000773561046931806,5.49836648867019e-05,3.66691872568347e-05
0.00178263198033762,-0.000777494953721461,5.02623132359813e-05,3.14862340684418e-05
0.00177748213872207,-0.000785899209135724,4.45856675318731e-05,2.21488150073591e-05
0.00176943551119778,-0.000798857259682253,3.61508654077215e-05,8.63882748402741e-06
0.00175803910243744,-0.000813615370608292,2.45283567228461e-05,-6.1627123302691e-06
0.00174732218666805,-0.000823199798059451,1.31283383459583e-05,-1.74603649317577e-05
0.00174046765211032,-0.000828945686158281,5.33370528995585e-06,-2.33703435859781e-05
0.00173505555004213,-0.000831091453498092,-2.07640382551582e-07,-2.68682476390302e-05
0.00172767649457911,-0.00083564524863036,-7.27655603555086e-06,-3.12586074013608e-05
0.00172027359725676,-0.000838661243835762,-1.58927152711262e-05,-3.55602511356066e-05
0.00171527872772686,-0.000839030792655396,-2.19523010631852e-05,-3.6585219975145e-05
0.00171276341156741,-0.000835764457927016,-2.34707577667964e-05,-3.42007763299107e-05
0.0017125965185521,-0.000833177616189576,-2.39785453174394e-05,-3.18195657444343e-05
0.00171014080704098,-0.000832700779002951,-2.81443886279112e-05,-3.19573190817728e-05
0.00170164118418939,-0.000833225299908239,-3.61793133281896e-05,-3.35712998887598e-05
0.0016931415613378,-0.000833225299908239,-4.42764176245593e-05,-3.40285856104934e-05
0.00168926725919648,-0.000830900718623443,-4.8913139428316e-05,-3.18476667864881e-05
0.00169037590565538,-0.000825464774695919,-4.88076539265885e-05,-2.68902967235487e-05
0.00169414291942971,-0.000816977072773997,-4.40177622283954e-05,-1.93658485169799e-05
0.00170253525391431,-0.000807607222056819,-3.57106789259819e-05,-9.90904696855611e-06
0.00171321640689471,-0.000797009515584082,-2.65627576273941e-05,-2.61401217863161e-07
0.00171918879265718,-0.000790882157735953,-1.89843158142645e-05,7.13990770942929e-06
0.00172667513648719,-0.000785136269637124,-1.24384737838523e-05,1.08515601730313e-05
0.00173463831750383,-0.000784528302224177,-4.37486102271513e-06,1.18204883555611e-05
0.00174452076819663,-0.000784122990615546,5.58546125400439e-06,1.27887046166597e-05
0.00175273428873624,-0.000781095074480478,1.43336189439008e-05,1.58618014834873e-05
0.0017585040186944,-0.000774812744546696,1.923396140295e-05,2.07457378139341e-05
0.00175986300467628,-0.000771212623787679,2.15745918001055e-05,2.57666520832235e-05
0.00176285515802235,-0.000766778037952068,2.43238201223033e-05,3.01457367484658e-05
0.00176600228345408,-0.000762903735810741,2.78713139767843e-05,3.41227072919021e-05
0.00176851759961352,-0.000760471866158954,3.03189639911519e-05,3.69564454738843e-05
0.00176917325074513,-0.000760269210354639,3.12548629919589e-05,3.66033911557438e-05
0.0017698765855954,-0.000766408489132433,3.25489613293631e-05,3.24783682725197e-05
0.00177246342733284,-0.000771713302833635,3.51743386142596e-05,2.73938557851618e-05
0.00177495490163296,-0.000772666977206884,3.76478483296448e-05,2.5186493061485e-05
0.0017749072179143,-0.000773417995775818,3.84202909467987e-05,2.66176851168148e-05
0.00177408467376737,-0.000772881553940866,3.77861259860318e-05,2.88414076765314e-05
0.00177247534826251,-0.000770986126124032,3.63783473111557e-05,2.90703102831021e-05
0.00176947127398677,-0.000773787544595453,3.36066919676156e-05,2.76869721915183e-05
0.00176411877656691,-0.000777018116534836,2.89670204993208e-05,2.69938787981324e-05
0.00175827752103075,-0.000776016758442924,2.34190351810144e-05,2.74128609314672e-05
0.00175302039104822,-0.000777232693268817,1.79771218550623e-05,2.62131472781177e-05
0.00174593935882684,-0.000785791920768733,1.21371097851471e-05,2.08181957041495e-05
0.00173927555914376,-0.000793826627363361,5.1355663908555e-06,1.26234906862078e-05
0.00173120508976013,-0.000801050710740728,-2.4461916274151e-06,5.72987402507482e-06
0.00172290812271286,-0.000807583380197488,-9.93074687100718e-06,1.43965014086564e-06
0.00171501646727422,-0.000813520003170967,-1.81491228644845e-05,-3.89408395088275e-06
0.00170484791426944,-0.000823950816628386,-2.77612073917146e-05,-1.36536906287439e-05
0.00169494162171731,-0.000837099602049565,-3.68513378578366e-05,-2.50709391153948e-05
0.00168989906846875,-0.000843930294747966,-4.24594227026617e-05,-3.14484672449505e-05
0.00168739567323897,-0.000843882611029304,-4.4128706931767e-05,-3.00054716506926e-05
0.00168738375230931,-0.000839722206576002,-4.38406258922541e-05,-2.45113816183663e-05
0.00168849239876821,-0.000835239937021729,-4.27677466727653e-05,-1.96096102980346e-05
0.00169072161261568,-0.000832366992972314,-4.04102935756383e-05,-1.58066176377841e-05
0.00169345150550911,-0.000830721904678458,-3.6878773307448e-05,-1.1808863453557e-05
0.0016973734913691,-0.000827038337411781,-3.34005142344789e-05,-8.7621960768557e-06
0.00170068750981614,-0.000828588058268312,-2.99279349328585e-05,-8.87219795097916e-06
0.00170542011889339,-0.000832212020886661,-2.46694537749477e-05,-1.11858758055217e-05
0.00171298990923106,-0.000833749820813526,-1.71515272761738e-05,-1.20964356423116e-05
0.00172071467165438,-0.00083229546739432,-9.75783840241438e-06,-1.00099878903666e-05
0.00172532807143498,-0.000829827834953537,-4.82681073603756e-06,-6.91139426950538e-06
0.00172814141083607,-0.000828671504775971,-1.73633094977155e-06,-4.92575767151464e-06
0.00173231373621903,-0.000828588058268312,1.80048469756523e-06,-3.53679312242261e-06
0.00173703442436662,-0.000825548221203579,6.87619849527185e-06,-9.70092387721705e-07
0.00174365054033104,-0.000821435500468939,1.31299026867959e-05,3.42146785843897e-06
0.00175061236325576,-0.000817525435538616,2.001016205528e-05,9.09347347420399e-06
0.00175682316761155,-0.000811386156760821,2.66599918237221e-05,1.51909211123651e-05
0.00176314126033433,-0.000805103826827039,3.14083799165585e-05,2.02439362776473e-05
0.00176377306960661,-0.000805103826827039,3.29743255750878e-05,2.18348003533842e-05
0.00176278363244436,-0.000809669542888972,3.17736158010886e-05,1.79655900681351e-05
0.00176118622786917,-0.000817084361140988,2.89445016039818e-05,8.91502357267806e-06
0.00175658474901824,-0.000829172183821927,2.47515798001302e-05,-2.69133463993322e-06
0.00175151835391035,-0.000840771248386577,1.91301932394752e-05,-1.35578386147749e-05
0.00174541483792155,-0.000847554257366315,1.30753446783902e-05,-2.13655656722493e-05
0.0017417908753032,-0.000851225903703326,8.04603445513719e-06,-2.54440620623419e-05
0.00173740397318625,-0.000852632573403869,4.37798075866395e-06,-2.67094407697762e-05
0.00173558007094741,-0.000852227261795238,1.51102814394879e-06,-2.70777064701883e-05
0.00173383961521623,-0.000853109410590494,-7.15617811357959e-07,-2.83798772738437e-05
0.00173218260599271,-0.0008553267035083,-2.39081652210877e-06,-3.12848152990265e-05
0.00173063288513618,-0.00085859303823668,-4.74722309465609e-06,-3.50625274594256e-05
0.00172681818764318,-0.000861132196255457,-9.45926269798065e-06,-3.84793201045463e-05
0.00171892653220454,-0.00086281304733831,-1.67210328988692e-05,-4.11185777110591e-05
0.00171166668603818,-0.000865244916990096,-2.52871654296916e-05,-4.38780213556863e-05
0.00170365582130288,-0.000868225149406502,-3.41746776021992e-05,-4.79607102823456e-05
0.00169485817520965,-0.000871646456220535,-4.26588132509457e-05,-5.30832414308122e-05
0.0016893626266338,-0.00087500815838624,-4.85373477879198e-05,-5.65486869604331e-05
0.00169099579399799,-0.000872135214336825,-4.84668943343262e-05,-5.42621068362218e-05
0.00169831524481268,-0.000858354619643367,-4.11385725801651e-05,-4.32375839159351e-05
0.00171029577912663,-0.000838971188007068,-2.89841131280475e-05,-2.38878180944926e-05
0.00172462473658471,-0.000814747858926526,-1.58339602019106e-05,-1.86795207566778e-07
0.00173746357783458,-0.000789415883387082,-3.84808268947681e-06,2.28096951900416e-05
0.00174731026573838,-0.000769782112227804,6.47804159664252e-06,4.20292395933556e-05
0.00175646553972158,-0.000752830550243291,1.46554049874496e-05,5.69514737850446e-05
0.00176229487432807,-0.000743126913495476,2.03539712725322e-05,6.74086728737117e-05
0.00176770697639626,-0.000735378309212822,2.48040562782464e-05,7.20119308097419e-05
0.00177307139474579,-0.000737118764944003,3.00728156328821e-05,6.96080213998013e-05
0.00177881728284462,-0.000745284601764953,3.61210734434685e-05,6.14790780988352e-05
0.00178338299890655,-0.000753784224616541,3.97235273468043e-05,5.08502476451304e-05
0.00178258429661896,-0.000762832210232747,3.76469577053321e-05,4.05330318779666e-05
0.00177390585982238,-0.000771260307506341,3.07950252365158e-05,3.20169094767386e-05
0.00176830302287954,-0.000775980995653927,2.40801727840868e-05,2.6097689320887e-05
0.00176717053456131,-0.000777852581611429,2.16260737500709e-05,2.25437921616559e-05
0.00176744471594362,-0.000780999707043153,2.27481134879319e-05,1.92104756039464e-05
0.00176748047873261,-0.000786387967252014,2.3422152824758e-05,1.34300545899409e-05
0.00176649104157037,-0.000793349790176737,2.11317430960356e-05,4.88288759183136e-06
0.00176292668360035,-0.000801503706068021,1.68874096009125e-05,-4.22460579633696e-06
0.00175665627459623,-0.000810062933567937,1.25123582513017e-05,-1.19671047927763e-05
0.00175291310268123,-0.000814771700785857,7.93423205189584e-06,-1.79079916638023e-05
0.00174825201918197,-0.000816512156517038,2.48045853451329e-06,-2.12882970383122e-05
0.00174229155434916,-0.000816988993703663,-2.63353655871449e-06,-2.06040447460579e-05
0.00173909674519877,-0.000812685538094374,-5.43180816227935e-06,-1.64851404564128e-05
0.0017380477033882,-0.000807285356955848,-6.58684168237825e-06,-1.2852875337261e-05
0.00173554430815842,-0.000808084059243444,-9.47998587530227e-06,-1.28860062431141e-05
0.00172815333176573,-0.000810873556785199,-1.61588393427618e-05,-1.49848026650313e-05
0.00171868811361123,-0.000809061575476025,-2.49088170257143e-05,-1.50687530023793e-05
0.00171117792792189,-0.000808501291781741,-3.28052531062661e-05,-1.23121289298275e-05
0.0017046214166058,-0.00080512766868637,-3.91130957678232e-05,-1.01904955333697e-05
0.00169841061225001,-0.000806534338386913,-4.45328074804028e-05,-1.15404796285442e-05
0.00169458399382734,-0.000811350393971824,-4.80486133011742e-05,-1.45435046994618e-05
0.00169563303563792,-0.000810897398644531,-4.67025720749465e-05,-1.4589010053808e-05
0.00170317898411626,-0.000804996538460048,-3.88727578046879e-05,-9.12943592496821e-06
0.0017151952812192,-0.000797426748122379,-2.64165418555255e-05,1.76727973754862e-07
0.00172761688993078,-0.000788891362481794,-1.2972512232578e-05,9.69120260355813e-06
0.00173954974052606,-0.000780630158223519,-1.03501370717396e-06,1.73738767005567e-05
0.00174913416797722,-0.00077469353525004,8.75671401300508e-06,2.39414614955068e-05
0.00175557146999666,-0.000770008609891451,1.6408833028172e-05,3.07999976897918e-05
0.00176085244183853,-0.000763201759052381,2.19062626618307e-05,3.75358278462285e-05
0.00176436911608989,-0.000759160563895736,2.57656117220832e-05,4.20534529987061e-05
0.00176696787875699,-0.000759780452238348,2.93433502934451e-05,4.28969008757902e-05
0.00177168856690458,-0.000762724921865757,3.39526400774781e-05,4.0651785571016e-05
0.00177627812482584,-0.000767350242576017,3.96090950184968e-05,3.71420129986202e-05
0.00178051005485714,-0.000771546409818316,4.47094712456452e-05,3.3941919072229e-05
0.00178337107797689,-0.000774371670149068,4.7029504122614e-05,3.1377806500482e-05
0.00178067694787246,-0.000779342697819632,4.53697336573773e-05,2.80826881548367e-05
0.00177459727374299,-0.000786733674212317,4.05622340131049e-05,2.20187739355674e-05
0.00176941166933844,-0.00079562668774287,3.47304427576746e-05,1.31631005061401e-05
0.00176281939523336,-0.000805759477958648,2.92364325781107e-05,4.4608494989265e-06
0.00175722847922018,-0.000812518645079055,2.36051607409643e-05,-1.64073024178414e-06
0.00174944411214853,-0.000819408942425784,1.70339422469188e-05,-6.63751387939311e-06
0.00174275647060612,-0.00082595353281221,1.05853817044231e-05,-1.31776231105853e-05
0.00173935900565141,-0.000832819988299607,6.52533537420215e-06,-1.95585186788427e-05
0.00173642645695367,-0.000836277057902638,5.02749702998863e-06,-2.11430768641915e-05
0.00173361311755259,-0.000833678295235532,2.95722917974711e-06,-1.79138811082606e-05
0.00172910700613898,-0.000832045127871342,-2.75748718358904e-06,-1.59965350627084e-05
0.00171912918800886,-0.000836074402098322,-1.14391535808344e-05,-1.93685669346839e-05
0.00171039114656396,-0.000841546108814842,-1.99487477810523e-05,-2.41517280253629e-05
0.00170362005851388,-0.000843501141280004,-2.70550399336358e-05,-2.4437883255151e-05
0.00169545422169293,-0.00083882813685108,-3.43860107151504e-05,-2.03738399935372e-05
0.00168743143602797,-0.000834858467272429,-4.28533271282784e-05,-1.66309103918101e-05
0.00168001661777595,-0.000835943271872,-5.03585472450545e-05,-1.57563644608564e-05
0.00167543898078436,-0.000838208248508468,-5.41282229333952e-05,-1.73218817146953e-05
0.00167597542261931,-0.000839853336802324,-5.37141299035426e-05,-2.11143117186244e-05
0.00168031464101759,-0.000846791317867715,-5.04881756807724e-05,-2.62308105847099e-05
0.00168457041290822,-0.000849950364229105,-4.56007660808073e-05,-2.8939984752143e-05
0.00168945799407113,-0.000847601941084977,-3.98679314663728e-05,-2.69524721676147e-05
0.00169663439372983,-0.000844550183090578,-3.44156128124599e-05,-2.47109704995119e-05
0.00170139084466641,-0.000848960927066858,-2.9625520901618e-05,-2.85985309721715e-05
0.00170634995140731,-0.000858032754542396,-2.41688694691994e-05,-3.72046744883415e-05
0.00171406279290097,-0.000862479261307672,-1.68274451608996e-05,-4.25181144060022e-05
0.00172300349015018,-0.000860321573038195,-8.83115140279496e-06,-4.13843043395401e-05
0.00172952423867728,-0.000859046033563973,-2.72051054037333e-06,-3.91968290244771e-05
0.00173268328503867,-0.000859046033563973,8.9418889675292e-07,-4.01007989454404e-05
0.00173655758717999,-0.000858187726628049,3.91921081717841e-06,-3.98933867988309e-05
0.00174160014042855,-0.000850164940963086,8.28865372897229e-06,-3.25188454336344e-05
0.00174829970290063,-0.000836002876520328,1.43596042054637e-05,-1.86678879182657e-05
0.00175555954906699,-0.000820314933080371,2.1647674886145e-05,-3.45845034827856e-06
0.00176374922774727,-0.000805068064038042,2.95196692975484e-05,1.06008792487393e-05
0.0017726183994185,-0.000791502046078565,3.68473656429585e-05,2.35274778751823e-05
0.00177829276193933,-0.000781297730284794,4.22136270422586e-05,3.3586159192129e-05
0.00178049813392747,-0.000774943874773018,4.47804791843178e-05,3.82588068754984e-05
0.00178116570598875,-0.000774645851531377,4.41832749388493e-05,3.8272517005392e-05
0.001778233157291,-0.000775778339849611,3.99284152684243e-05,3.64306457743149e-05
0.00177011500418872,-0.000777435349073133,3.21914109084384e-05,3.33254118907528e-05
0.00176132927902515,-0.000782454060462359,2.29438561722479e-05,2.81313280927048e-05
0.00175465355841241,-0.000786256837025692,1.47086755633287e-05,2.29130687176982e-05
0.00174838314940829,-0.000786852883508973,8.11899384843675e-06,2.1735760175057e-05
0.00174249421015347,-0.000783407734835609,2.07027998486065e-06,2.47868866449292e-05
0.00173736821039726,-0.000779116200155985,-3.85852854897087e-06,2.68587136600897e-05
0.00173349390825593,-0.000783455418554271,-8.82428050330372e-06,2.30974025220096e-05
0.00172996531307491,-0.000791549729797228,-1.25660308963302e-05,1.41515873931081e-05
0.00172709236902549,-0.000799071836416235,-1.59352248799116e-05,4.6233990648603e-06
0.00172415982032775,-0.000805985975622295,-1.92224007118163e-05,-1.87639267948477e-06
0.00172330151339182,-0.000808346319696088,-2.17522463095074e-05,-5.18939020472194e-06
0.00172075043444338,-0.000809884119622953,-2.36211354304238e-05,-7.44489078826674e-06
0.00171903382057153,-0.000812387514852733,-2.60249175390393e-05,-1.05123896934907e-05
0.00171684036951306,-0.000815153170535157,-2.91821783968667e-05,-1.42767539192525e-05
0.00171509991378188,-0.000818193007599891,-3.15876752766897e-05,-1.70721730851202e-05
0.00171424160684595,-0.000818312216896547,-3.1921522958653e-05,-1.77037232423121e-05
0.00171686421137239,-0.000816035319330413,-2.99183959857021e-05,-1.64157967860262e-05
0.00172346840640714,-0.000812983561336014,-2.47943699311975e-05,-1.3681393761469e-05
0.00173244486644535,-0.000809228468491344,-1.51485469991036e-05,-9.2747389899939e-06
0.00174574862395219,-0.000802862692049902,-1.77961578064701e-06,-3.39125433345166e-06
0.00176011334419926,-0.000795745897039526,1.14320549757832e-05,2.51350584251303e-06
0.00177021037162604,-0.0007918715948982,2.12122847229463e-05,7.2051876633966e-06
0.00177630196668517,-0.000789034413637782,2.79639913475067e-05,1.10234913236652e-05
0.00178262005940795,-0.000783550785991596,3.35955433654088e-05,1.46089644930334e-05
0.00178701888245457,-0.0007819891442054,3.79714606385425e-05,1.73900237022765e-05
0.00178898583584939,-0.000781083153550813,3.96370032765269e-05,1.8767330927791e-05
0.00178830634285845,-0.000779569195483279,3.88502341144591e-05,1.98500230099478e-05
0.0017862440220263,-0.000778007553697082,3.74703191256092e-05,2.24293699674853e-05
0.00178527842672339,-0.000773477600424147,3.61807891435133e-05,2.67922305461188e-05
0.00178384791516351,-0.000769126461096195,3.37352534068096e-05,3.16940210453502e-05
0.00177762518987806,-0.000766265437976446,2.890402023307e-05,3.56251096255895e-05
0.00177019845069638,-0.000764977977572559,2.18413535944221e-05,3.69869725172404e-05
0.00176320086498266,-0.000768220470441608,1.37841907476102e-05,3.42671922573758e-05
0.00175579796766031,-0.000775849865427605,6.50836995015635e-06,2.75991182117616e-05
0.00174925337727388,-0.000784838246395483,1.58841496175125e-06,1.91725404637656e-05
0.00174715529365273,-0.000794613408721292,-9.36130845060061e-07,1.08510550513527e-05
0.00174622546113881,-0.000801634836294343,-2.63641151938324e-06,2.8581114005627e-06
0.00174279223339511,-0.000810933161433527,-4.52624478302867e-06,-3.78654697465511e-06
0.00174158821949889,-0.000813353110155649,-5.8050562239655e-06,-5.93928558159293e-06
0.00174094448929694,-0.000810229826583256,-5.99294060172518e-06,-2.42345654017066e-06
0.00173996697306436,-0.000806665468613235,-7.07965387023258e-06,2.12530379518991e-06
0.00173476944773015,-0.000809419203365994,-1.15932000176287e-05,1.13239374552896e-06
0.00172691355508051,-0.000816953230914666,-1.91818241085116e-05,-6.51850928503616e-06
0.00171802054154995,-0.000827515174598406,-2.70190800183438e-05,-1.59134066635455e-05
0.00171254883483343,-0.000835299541670057,-3.31514747355909e-05,-2.24992787355001e-05
0.00170741091414755,-0.000839471867053024,-3.75481486764533e-05,-2.59197190156982e-05
0.00170370350502154,-0.000842106392509126,-4.02304370878101e-05,-2.77652418253235e-05
0.0017030955376086,-0.000843870690099638,-4.05824560641924e-05,-2.90690139446656e-05
0.00170524130494841,-0.000847411206210327,-3.87077672001488e-05,-3.04784546290223e-05
0.00170753012344421,-0.000847816517818959,-3.54759949395566e-05,-3.15069481751177e-05
0.00171123753257021,-0.000846529057415071,-3.07107311473426e-05,-2.88283324446635e-05
0.0017193914484615,-0.0008374691508692,-2.30612846082081e-05,-1.88189997184608e-05
0.00172895203405333,-0.000822567988787174,-1.24703033939147e-05,-3.31441311736378e-06
0.00173987160562704,-0.000809514570803319,-1.45098988086356e-06,1.02536090237539e-05
0.00174738179131638,-0.000804019022227467,7.06355078152896e-06,1.64096239731063e-05
0.00175280581431423,-0.000804245519891114,1.24975919075334e-05,1.68274112397489e-05
0.00175620327926894,-0.000806033659340957,1.66649570840417e-05,1.61843107986813e-05
0.00176085244183853,-0.000806283998863935,2.14379943034543e-05,1.56160507576211e-05
0.00176558505091578,-0.000809085417335356,2.67524116307583e-05,1.3067080143774e-05
0.00176856528333219,-0.00081577305887777,3.07989982771041e-05,8.08726889390824e-06
0.0017702938181337,-0.000820899058633986,3.21004451682937e-05,2.70390791321858e-06
0.00176861296705085,-0.000825333644469598,3.1073809958375e-05,-2.17376928224992e-06
0.00176559697184545,-0.000832390834831645,2.88570772954914e-05,-8.35847438198206e-06
0.0017611743069395,-0.000842714359922073,2.50360138419721e-05,-1.75845556643458e-05
0.00175504694909137,-0.000852596810614872,1.84178959108202e-05,-2.84708717008474e-05
0.00174578438674118,-0.000861167959044454,1.04513378648927e-05,-3.6980147640068e-05
0.00174055109861798,-0.000864696554225478,5.28446989800839e-06,-3.96639385385987e-05
0.00173937092658108,-0.000861692479949741,4.63099216229702e-06,-3.66368529896359e-05
0.00173904906148011,-0.000856089643006899,4.83286749870959e-06,-3.15493514048332e-05
0.00173599730348571,-0.000852763703630191,1.68451132625334e-06,-2.81642465119013e-05
0.00173001299679357,-0.00085140471764831,-3.59150461784517e-06,-2.68450154903984e-05
0.00172610293186324,-0.000849914601440108,-6.49545777496338e-06,-2.49521726312909e-05
0.00172716389460348,-0.000844907810980547,-6.20617757138561e-06,-2.03121755286792e-05
0.00172582875048093,-0.000836527397425616,-6.49661881663388e-06,-1.3093358005919e-05
0.00172208557856593,-0.000828933765228615,-9.88467399150828e-06,-4.73223985879087e-06
0.00171701918345804,-0.000822150756248877,-1.4819651575504e-05,2.9487170705846e-06
0.00171151171395252,-0.00081481938450452,-1.93615678160274e-05,7.48133518970981e-06
0.00170768509552986,-0.000816321421642388,-2.38305950555381e-05,7.06651947625361e-06
0.0017026425422813,-0.000820982505141646,-2.82315621697465e-05,3.05734706617922e-06
0.00169918547267827,-0.000823211718989117,-3.03125087707929e-05,-8.23289069278262e-07
0.00170162926325972,-0.000824916411931301,-2.83679873183867e-05,-2.46644857132037e-06
0.00170702944439825,-0.000825023700298291,-2.36828806192915e-05,-2.49035173750331e-06
0.00171048651400128,-0.000822973300395805,-1.83169189472614e-05,-9.99061156230131e-07
0.0017151952812192,-0.000818824816872169,-1.25796232403563e-05,3.41955278158849e-06
0.00172380219243778,-0.000811374235831155,-6.57205884880661e-06,9.78811827453201e-06
0.00172606716907425,-0.0008078217987908,-2.11676492144049e-06,1.33611126686833e-05
0.00172624598301923,-0.000810325194020581,-7.54044929835e-07,1.14068036554449e-05
0.00172747383877479,-0.000812900114828355,-1.06886411978694e-06,7.99722722358159e-06
0.00172760496900111,-0.000810670900980884,2.24092084002292e-08,9.34370904413229e-06
0.00173143158742378,-0.000805652189591657,4.2500373259637e-06,1.57876568241705e-05
0.00173822651733318,-0.000798118162042985,1.14871793594329e-05,2.21783930415116e-05
0.00174708376807474,-0.000794732618017949,2.06307102384717e-05,2.54635444925998e-05
0.00175653706529957,-0.000792455720451815,2.93106903453939e-05,2.79759271721698e-05
0.0017600298976916,-0.000787472771851586,3.43461543568696e-05,3.27941877783863e-05
0.00176039944651124,-0.0007812262047068,3.4606728670558e-05,3.91616034244036e-05
0.0017581940745231,-0.000776553200277877,3.23964936451407e-05,4.36622245427396e-05
0.00175623904205793,-0.000776362465403227,3.03564839597222e-05,4.38074371739431e-05
0.00175333033521952,-0.000780785130309172,2.83782852424492e-05,3.96301384234086e-05
0.00175017128885813,-0.000787878083460217,2.53876814146366e-05,3.33484977812949e-05
0.00174764405176902,-0.000791740464671878,2.23875680221081e-05,2.78651628297334e-05
0.00174586783324884,-0.000797081041162076,2.09474337895725e-05,2.41256372686935e-05
0.00174357901475304,-0.000801730203731668,1.97563488352647e-05,1.98828921635899e-05
0.0017406464660553,-0.000808143663891772,1.57841900036134e-05,1.25727800934346e-05
0.00173280249433532,-0.000817966509936244,8.75104391475805e-06,3.18526907681073e-06
0.00172612677372258,-0.000826931049044791,1.81882678044134e-06,-4.46595924170467e-06
0.00172117958791134,-0.000830030490757852,-2.42977317549044e-06,-8.02574913072866e-06
0.00171936760660217,-0.000830125858195177,-4.64031509787248e-06,-8.25684678278761e-06
0.00171678076486473,-0.000829947044250193,-7.15385052694406e-06,-6.9840611486663e-06
0.00171201239299848,-0.000829005290806609,-1.16451316154409e-05,-5.93445428201068e-06
0.00170502672821443,-0.000831031848849764,-1.82953513012825e-05,-7.40617036887086e-06
0.00169856558433566,-0.000836086323027988,-2.5490803351799e-05,-1.29494503218537e-05
0.00169286737995549,-0.000844943573769544,-3.03430567424381e-05,-2.05175175071453e-05
0.00169258127764352,-0.000850069573525761,-3.13593166416038e-05,-2.5528291327802e-05
0.00169261704043251,-0.000850665620009042,-3.06697433350447e-05,-2.59663863654497e-05
0.00169147263118462,-0.000849604657268802,-3.18193826330043e-05,-2.44544782351442e-05
0.00168918381268882,-0.00084966426191713,-3.53327898069849e-05,-2.43714264384426e-05
0.00168486843614986,-0.000852108052498582,-3.82977220808299e-05,-2.59657726750468e-05
0.00168495188265752,-0.000853467038480463,-3.82250908512403e-05,-2.72528392568739e-05
0.00168968449173477,-0.000852692178052197,-3.50977355773915e-05,-2.66555213819431e-05
0.00169441710081202,-0.000850462964204726,-2.94932745232354e-05,-2.35948156360402e-05
0.00170181999813437,-0.000845599224901153,-2.13694613132838e-05,-1.83829226231643e-05
0.00171309719759805,-0.00083978181122433,-1.16842267087034e-05,-1.27005058048124e-05
0.00172165642509797,-0.000835728695138019,-2.85581625917933e-06,-8.3735945420583e-06
0.00172818909455473,-0.000832057048801008,3.9295939703372e-06,-4.64280012944302e-06
0.00173474560587082,-0.000826728393240475,1.02264576617965e-05,1.38949620056394e-06
0.00174256573573147,-0.000817370463452963,1.77296824870369e-05,1.05464961308114e-05
0.00175111304230172,-0.000807285356955848,2.55340870194295e-05,2.00306015038522e-05
0.00175632248856559,-0.00080109839445939,3.13664184951214e-05,2.72911874595805e-05
0.00175925503726334,-0.000795400190079223,3.43496369563674e-05,3.27960227500934e-05
0.00176172266970412,-0.000790488767056988,3.50956801246763e-05,3.70860843000029e-05
0.00175975571630929,-0.000790119218237353,3.40626109993415e-05,3.78591695661759e-05
0.00175722847922018,-0.000794839906384939,3.14745681205377e-05,3.29514471918781e-05
0.00175526152582535,-0.000803458738533183,2.83366835668831e-05,2.42690261651253e-05
0.00175231705619794,-0.00081223254276708,2.58373085671573e-05,1.54610847689805e-05
0.00175088654463807,-0.000819683123808093,2.35479544547048e-05,6.89904744361761e-06
0.00174608240998282,-0.000831353713950736,1.93993398036349e-05,-3.71486675535567e-06
0.00173999081492369,-0.000843274643616357,1.2097292530275e-05,-1.64245614188598e-05
0.0017311454851118,-0.000854039243104413,3.17682031144305e-06,-2.8073095641786e-05
0.00172367106221146,-0.000862562707815332,-4.04484536499262e-06,-3.62998210387015e-05
0.00172042856934241,-0.000867700628501214,-8.03441206177966e-06,-4.15089413160057e-05
0.00171768675551932,-0.000869679502825707,-1.12507764710959e-05,-4.45580246334638e-05
0.00171111832327356,-0.00086991792141902,-1.75699660665498e-05,-4.53498356554188e-05
0.00170216570509468,-0.000869822553981695,-2.69609159272143e-05,-4.45042680537683e-05
0.00169556151005992,-0.000867974809883524,-3.42446188788324e-05,-4.39199715617725e-05
0.00169490585892831,-0.000867426447118905,-3.47513988101541e-05,-4.44698989091783e-05
0.00169981728195055,-0.000868821195889783,-3.00286626108531e-05,-4.49058216659377e-05
0.00170513401658142,-0.000866723112268633,-2.56266388576466e-05,-4.39330805975026e-05
0.00170612345374366,-0.000863993219375206,-2.39639633717116e-05,-4.16559168109681e-05
0.00170888910942609,-0.00085908179635297,-2.23536273468549e-05,-3.80957822662142e-05
0.00171314488131671,-0.000854301503557056,-1.80981577110672e-05,-3.20782603459185e-05
0.00171858082524424,-0.00084438329007526,-1.20920090554334e-05,-2.29229555878822e-05
0.00172603140628525,-0.000831258346513411,-6.16672182792015e-06,-1.2002588250223e-05
0.00173220644785204,-0.000821077872578971,1.40576358004645e-08,-1.3964082659481e-06
0.00173856030336382,-0.000813603449678627,7.31538413232621e-06,8.12153180451278e-06
0.00174723874016039,-0.000801074552600059,1.46655425728677e-05,1.68469825143853e-05
0.0017536164375315,-0.000792861032060446,2.04270634128963e-05,2.49143868767927e-05
0.00175688277225988,-0.000787401246273592,2.454042885764e-05,3.23924977866954e-05
0.00176000605583227,-0.000778985069929663,2.74084310582161e-05,3.98674157553716e-05
0.00176219950689074,-0.000768184707652611,2.84200149053739e-05,4.78170581311895e-05
0.00176100741392418,-0.000762236163749466,2.76029085212905e-05,5.57036806898642e-05
0.00176031600000358,-0.000755918071026687,2.69135137416119e-05,6.23461514381781e-05
0.00176132927902515,-0.000749886080615883,2.75535014417071e-05,6.68278447863764e-05
0.00176165114412613,-0.000747549578401421,2.77606084211639e-05,6.86310656139352e-05
0.00176061402324522,-0.000749564215514911,2.5897174845151e-05,6.75049612359473e-05
0.00175807486522644,-0.00075337891300791,2.39258957436224e-05,6.37427660944016e-05
0.00175831328381975,-0.000758242652311483,2.44008824381012e-05,5.80003312651141e-05
0.00176051865580789,-0.00076614622867979,2.5209305373852e-05,5.02967549846741e-05
0.00175662051180723,-0.000776314781684564,2.12491547497289e-05,3.97934544502426e-05
0.00174540291699188,-0.000790858315876622,1.1232736826866e-05,2.62060252177755e-05
0.00173456679192583,-0.000806283998863935,-6.90677248047885e-07,1.10156223660673e-05
0.00172572146211394,-0.000818443347122869,-1.02781895004838e-05,-3.26097334207476e-06
0.00171881924383755,-0.000831759025559367,-1.67860221281155e-05,-1.46918006874575e-05
0.00171417008126796,-0.000840985825120558,-2.09447979864989e-05,-2.25334002228409e-05
0.00171260843948176,-0.000843119671530704,-2.31374286460987e-05,-2.67693243974014e-05
0.00171240578367745,-0.000844013741255625,-2.4790530333056e-05,-2.75650588662693e-05
0.00170741091414755,-0.000843644192435991,-2.81131919988283e-05,-2.50178914015093e-05
0.00170328627248325,-0.000838208248508468,-3.26038755627176e-05,-1.94568826785176e-05
0.00170249949112531,-0.000829589416360224,-3.46468481822792e-05,-1.24316575318597e-05
0.00170457373288713,-0.000824761439845648,-3.25244156349955e-05,-7.00530097539173e-06
0.00170688639324226,-0.000826501895576828,-2.92546977347913e-05,-5.70883642395266e-06
0.00170880566291843,-0.000826752235099806,-2.83038487693112e-05,-7.83806291532551e-06
0.00170863876990311,-0.000828039695503693,-2.88580843351277e-05,-9.97520716600171e-06
0.00170997391402566,-0.000830769588397121,-2.78295121211324e-05,-9.72694041387896e-06
0.00171213160229514,-0.000828945686158281,-2.44741813181199e-05,-7.79075075527169e-06
0.00171787749039397,-0.000825262118891604,-2.0127666849735e-05,-5.82584107081353e-06
0.00172377835057845,-0.000824940253790632,-1.48764539014941e-05,-3.93459438382701e-06
0.00172966728983326,-0.000824439574744676,-7.68206685730953e-06,-1.57270874332987e-06
0.00173878680102746,-0.00082029109122104,7.96749013068649e-07,2.97087549639774e-07
0.00174756060526136,-0.000822758723661823,8.35960737448743e-06,-3.31094360339862e-07
0.00175246010735393,-0.000827455569950078,1.41913260574827e-05,-4.38330074936585e-06
0.00175789605128146,-0.00083335643013456,1.93703427775287e-05,-1.11468411036889e-05
0.00176337967892764,-0.00084255938783642,2.44340370061391e-05,-1.9025839783365e-05
0.0017679692368489,-0.000849270871238164,2.8346044645534e-05,-2.5775962275552e-05
0.00176869641355851,-0.000852847150137851,2.98685312838416e-05,-2.92952665501035e-05
0.00176761160895894,-0.000854015401245081,2.83437849612027e-05,-2.99775181179289e-05
0.00176343928357597,-0.000855612805820275,2.35038010595277e-05,-3.11851080503849e-05
0.00175647746065125,-0.000859046033563973,1.64438300040158e-05,-3.51393425276259e-05
0.00174959908423418,-0.000864267400757515,1.04886446544975e-05,-3.90995198990239e-05
0.00174943219121886,-0.00086234813108135,8.80790935279766e-06,-3.81533876008636e-05
0.00175113688416105,-0.000856244615092553,1.08280700086522e-05,-3.13621053841258e-05
0.00175296078639989,-0.000847327759702668,1.28158805036506e-05,-2.23878594363581e-05
0.00175265084222858,-0.000839281132178374,1.22557126938212e-05,-1.42940761854555e-05
0.00175089846556774,-0.000831472923247392,9.93436663988284e-06,-7.03647557927227e-06
0.0017482758610413,-0.000825464774695919,7.6411381185925e-06,-4.31778534169024e-07
0.00174676190297377,-0.000820636798181343,5.84660413170885e-06,4.21144932166706e-06
0.00174494992166459,-0.000817859221569253,4.011303126357e-06,6.86769706264202e-06
0.00174245844736448,-0.000814044524076254,1.1828843561593e-06,9.66386896726191e-06
0.00173701058250729,-0.000812006045103433,-4.1134078499316e-06,1.29816834309775e-05
0.00172921429450597,-0.000810062933567937,-1.23234087060221e-05,1.42040524288794e-05
0.00172061930421706,-0.00080991988241195,-2.05020558783934e-05,1.30218755136201e-05
0.00171756754622266,-0.000809574175451647,-2.40049899632101e-05,1.42739407681963e-05
0.00171999941587445,-0.000802516985089599,-2.19418040731712e-05,2.13007835752856e-05
0.00172256241575255,-0.000792789506482452,-1.8719109998688e-05,2.93093549201415e-05
0.00172321806688416,-0.000791931199546528,-1.83378053553168e-05,3.06890100651877e-05
0.00172302733200951,-0.000796759176061104,-1.91476713229163e-05,2.56047473682657e-05
0.00172517309934933,-0.000799763250336841,-1.65814412604479e-05,2.17305492757434e-05
0.00173193226646973,-0.000797867822520007,-9.51367541774838e-06,2.35816037639946e-05
0.00174089680557828,-0.000792431878592484,-1.05391497470294e-06,2.77710377166443e-05
0.00174859772614227,-0.00079091792052495,6.18000910899754e-06,2.98764340345415e-05
0.00175365220032049,-0.0007899642461517,1.24586258510843e-05,3.02362709079296e-05
0.00176043520930023,-0.000787973450897542,1.83195528279079e-05,3.02121570378287e-05
0.00176430951144156,-0.000791776227460875,2.23228023207837e-05,2.76938361038897e-05
0.00176466713933153,-0.000798249292269307,2.28035964829384e-05,2.05354860200544e-05
