BCL,BCC,BCL_Filtered,BCC_Filtered
-,-,-,-
-0.00221167815993298,0.000760054633620657,-3.07381901442425e-20,1.72818053415019e-20
-0.0021984936117228,0.000808334398766422,1.45347989624307e-05,4.13899484279188e-05
-0.00219407094681686,0.000828898002439618,1.57494776209974e-05,7.33259991015695e-05
-0.00220490707188291,0.000843584587787663,4.73250708546469e-07,8.75323436162296e-05
-0.00224173082362001,0.000842511704117757,-3.02226954500357e-05,8.08820662488107e-05
-0.00228394283556597,0.000818777133153506,-7.52465347939815e-05,5.86354432377611e-05
-0.00232768072650914,0.000788319157857845,-0.000123693409236769,3.1352321872197e-05
-0.0023600102877623,0.000763785884605997,-0.000155478488629774,7.53042362781747e-06
-0.00237365975222944,0.000748431727196677,-0.000164433649257511,-9.44426453140421e-06
-0.00237257494762987,0.000741457983342289,-0.000167524632850204,-1.81515948184221e-05
-0.00237605585909223,0.000738298936980899,-0.00017657796270572,-1.80075364130818e-05
-0.00237892880314164,0.00074110035545232,-0.000174351887557008,-1.29017238765733e-05
-0.00234528793962526,0.00074733500166744,-0.000137527496760886,-9.7083505628551e-06
-0.00227478756158278,0.000748610541141661,-7.3319811934332e-05,-8.52491583747557e-06
-0.00220971120653815,0.000755143210598422,-1.30685796219894e-05,-6.58147236722187e-07
-0.00218362821242977,0.000769209907603854,2.27207698129451e-05,1.62527055532575e-05
-0.0021753312453825,0.000779628800131607,3.23196994636021e-05,2.74926439880599e-05
-0.00218273414270485,0.000775980995653927,1.48737181759744e-05,1.78489117842968e-05
-0.0022198559176836,0.000753974959491191,-2.69584733362777e-05,-3.97476741196764e-06
-0.00228860391906523,0.000725483937590357,-6.6643246677563e-05,-1.26176427810791e-05
-0.00225718034846666,0.000764644191541922,-6.57123293057846e-05,9.21466296142912e-08
-0.00221772207127345,0.00076614622867979,-1.73730417224942e-05,1.37816425306138e-05
-0.00217003835261097,0.000753831908335203,4.14342186021392e-05,8.65061151069163e-06
-0.00212991250335649,0.000743079229776813,7.16003159618262e-05,-8.23757208776602e-06
-0.00213623059607927,0.000737381025396647,6.86543623281418e-05,-1.69466701989333e-05
-0.00215648425558116,0.000734674974362551,4.97842221432912e-05,-1.39268066193169e-05
-0.00218080295209902,0.000733089490717023,2.4813867396605e-05,-1.27459150231967e-05
-0.00221384776913212,0.000728058858398131,-3.00104935671258e-06,-2.13110171502013e-05
-0.00222963108000941,0.000717163128683753,-2.1740039446283e-05,-3.2799741215718e-05
-0.00222594751274273,0.000707340282639282,-1.7357115568705e-05,-3.7744933813036e-05
-0.00220472825793792,0.00071219210101319,8.62759458873195e-06,-3.27249992730398e-05
-0.00217019332469662,0.00073072914664323,4.2714430227762e-05,-1.69538174811808e-05
-0.00213693393092954,0.000751197382879101,7.72853058967957e-05,7.98237560669324e-06
-0.00210478318362136,0.000776755856082192,0.000111554793526899,3.23252244576732e-05
-0.00207865250579432,0.000785279320793111,0.000137536312007194,4.1793342799022e-05
-0.00208021414758051,0.000772607372558556,0.000140332150953387,3.15908919521113e-05
-0.00210595143472859,0.000753665015319885,0.000116072999494339,1.11697988246321e-05
-0.0021415592516398,0.000733947797652948,7.99713912421437e-05,-6.98038421608951e-06
-0.00217081321303923,0.000721764607534683,5.26809087140269e-05,-1.74219843447804e-05
-0.00218352092406278,0.000719225449515906,4.42733410205456e-05,-1.9697019873319e-05
-0.00217869294754821,0.000724268002764463,5.23565759268035e-05,-1.43758361638548e-05
-0.00215795052993003,0.000731504007071495,6.83331834492617e-05,-5.45831809840613e-06
-0.00214941514428944,0.000736546560320053,8.21987181382298e-05,-3.11328850216983e-07
-0.00215196622323789,0.000733554406973982,8.67098770799959e-05,-1.27875318417365e-06
-0.00215350402316475,0.000734233899964923,8.11831766279615e-05,-8.06724526482197e-07
-0.00216418517614515,0.000743961378572069,6.96689632223637e-05,9.82694692976732e-06
-0.00218861116103,0.000761127517290563,5.50273597041099e-05,2.88742247269191e-05
-0.00220439447190729,0.000778520153672704,3.80602812896438e-05,4.57082204860789e-05
-0.00221806777823375,0.000783658074358587,2.2192753467613e-05,5.29137482669357e-05
-0.00223250402405882,0.00078209643257239,1.37032981639495e-05,5.24288944725739e-05
-0.0022327543635818,0.000780475186137866,1.55560101608196e-05,4.95782886417019e-05
-0.00222069038276019,0.000773942516681106,2.5194486531505e-05,4.5410320337067e-05
-0.00221154702970666,0.000763249442771044,3.93311493200017e-05,3.75003630779743e-05
-0.00219838632335581,0.000754487559466812,5.48291080474257e-05,2.58301834589293e-05
-0.0021859408727849,0.000740754648492017,6.22991748191541e-05,1.37835474769752e-05
-0.00220935357864818,0.000726747556134913,4.65762438534716e-05,2.91066144989415e-06
-0.00225601209735942,0.000714707417172635,8.18132035327734e-07,-9.42811243211453e-06
-0.00231702341538807,0.000700891059690181,-6.41424233777055e-05,-2.44245477843666e-05
-0.00238742842599323,0.000686240237131133,-0.000131416990928577,-3.67322454463964e-05
-0.00245286240892782,0.000681936781521844,-0.000194007257216362,-3.99114863927595e-05
-0.00250834241559162,0.00068464283255594,-0.000249150381034205,-3.62320486673531e-05
-0.00253708377701543,0.000686693232458426,-0.000281586965503473,-3.54980357750771e-05
-0.00252770200536859,0.000678193609606839,-0.000270246321414025,-4.29141565149552e-05
-0.0024789096402472,0.000664985219537331,-0.000217084051045749,-5.34106116985758e-05
-0.0024124742992207,0.000658893624478198,-0.000153920882175689,-6.00372909184904e-05
-0.00236362232945098,0.000657749215230299,-0.000109160773530472,-6.18314664002e-05
-0.00233824267019288,0.000660276452319411,-7.86645740629917e-05,-5.9064067673082e-05
-0.00230271829978933,0.00066909794027197,-4.28857424982948e-05,-4.68093422789971e-05
-0.00225722803218532,0.000695276301817673,-2.47510728379134e-06,-2.130780790888e-05
-0.00223089469855396,0.000728476090936428,2.25762789819879e-05,9.20039521545297e-06
-0.00223460210767997,0.000744056746009394,2.41588448420796e-05,2.76097110793466e-05
-0.00223912014002324,0.00073734526260765,1.28719251022368e-05,2.33055267450769e-05
-0.00226023210646105,0.000717806858885697,-8.85008253333886e-06,5.32076039158505e-07
-0.00230706943911728,0.00068848137190827,-5.49764889592712e-05,-2.80445454982528e-05
-0.00237276568250452,0.000663495103329128,-0.000123971997863599,-5.15583646522141e-05
-0.0024264813915778,0.000650966206250561,-0.000179365270323993,-6.46634659034473e-05
-0.00242899670773725,0.000649130383082055,-0.000183563354671731,-6.54799375927268e-05
-0.00238449587729549,0.000664401093983715,-0.000140091341992286,-5.14706484883644e-05
-0.00232219709886295,0.000700902980619846,-8.10684382238062e-05,-1.68325388870837e-05
-0.00225622667409341,0.000754845187356781,-2.02574196869761e-05,4.23788732280278e-05
-0.00218433154728005,0.000831639816262711,5.61920158498753e-05,0.0001160529209644
-0.00208263409630263,0.000895547920200105,0.000151714165914674,0.000176890794166832
-0.00198825609613991,0.000913834626307167,0.000238331594684367,0.000198710019166361
-0.00194451820519675,0.000894546562108192,0.000285919978968321,0.000179757552340727
-0.00193511259169058,0.000859296373086951,0.000295487774512506,0.000141872661594942
-0.0019287587361788,0.000824356128237017,0.000289122453270278,0.00010570536644665
-0.0019405127728291,0.000790870236806288,0.000277851987294424,7.39273588225804e-05
-0.00196740639015474,0.00075740818723489,0.00025365443730144,4.06305190010664e-05
-0.00200696003478527,0.000727033658446888,0.000206584609808814,7.49100962641777e-06
-0.00207133305497963,0.00070241693868738,0.000137107439445563,-1.73383220354354e-05
-0.00214976085124975,0.000688838999798238,5.65039264198877e-05,-3.15178197229139e-05
-0.00221965326187928,0.000677442591037905,-1.33478581035002e-05,-4.14157209578792e-05
-0.00225014699996394,0.000667965451953736,-4.72875606005694e-05,-5.39823566868909e-05
-0.00223537696810823,0.00065143112250752,-4.08890383308519e-05,-7.18531385057706e-05
-0.00221778167592178,0.000627446212020291,-2.58046242229578e-05,-9.55017423735452e-05
-0.00223871482841461,0.00059902671569745,-4.27084306476011e-05,-0.000123597396038096
-0.00228232158913145,0.000574803386616909,-9.35818146709494e-05,-0.000149706954848791
-0.00231565250847653,0.000564551387104475,-0.000136385583456246,-0.000163395289340081
-0.00231715454561439,0.000569450889197045,-0.000135429947450599,-0.000157240476846722
-0.0022859455517498,0.000593709981066583,-0.000102446457304276,-0.00013122897668847
-0.0022483588605141,0.000639689006786883,-7.44998980823188e-05,-9.05977784484841e-05
-0.00223001254975871,0.000689828436960485,-6.33158010683778e-05,-4.28074204513832e-05
-0.00221934331770797,0.000731122537322195,-4.71796981886771e-05,2.92130502967613e-06
-0.00218161357531628,0.000768852279713886,-1.14617545522342e-05,3.73407467576632e-05
-0.00213645709374291,0.000791025208891941,2.32675633364781e-05,5.5428333546375e-05
-0.00213428748454377,0.000792121934421178,2.33568450505366e-05,5.78916844366394e-05
-0.00217969430564012,0.000783312367398284,-1.70797445057977e-05,4.80928280286823e-05
-0.00222221626175739,0.000765419051970187,-6.67192258937191e-05,3.00731778350484e-05
-0.00223679555873844,0.000750732466622142,-8.6351852879853e-05,1.04269522200645e-05
-0.00221498025745036,0.000737774416075612,-6.39759629460372e-05,-1.54844147008759e-06
-0.00217183841299048,0.000739288374143146,-2.25930920530063e-05,1.099312229051e-06
-0.00214251292601305,0.000761282489376216,5.12188028824412e-06,1.84558342281992e-05
-0.00213352454504517,0.000787901925319548,1.00319090501037e-05,4.49745401328915e-05
-0.00212957871732585,0.00081588034724476,1.12000024579057e-05,7.25848515470548e-05
-0.00211949361082873,0.000836062481168656,2.5003371410264e-05,9.12478955990215e-05
-0.00210064662102739,0.000836694290440934,3.84415139281109e-05,9.11446726467795e-05
-0.00211087477868049,0.000817644644835272,2.56519674513179e-05,7.02719663238212e-05
-0.0021529675813298,0.000787091302102286,-1.31104057437109e-05,3.95623616699254e-05
-0.0021821977008699,0.000764739558979246,-4.65099546891285e-05,1.58200835966942e-05
-0.00218397391939008,0.000757193610500908,-5.00382350593357e-05,7.94725899118561e-06
-0.00217208875251345,0.000761699721914513,-3.31622629814719e-05,1.15773263558785e-05
-0.00215402854407004,0.000767803237903311,-2.05210010323593e-05,1.59890830654511e-05
-0.00215103639072397,0.000764942214783562,-1.9740286204246e-05,1.29583755222081e-05
-0.00215836776246832,0.000751030489863782,-1.97091918276498e-05,1.46391498542708e-07
-0.00214746011182428,0.00073533062549416,-1.10905197942036e-05,-1.85589731259696e-05
-0.00212690842908075,0.000719535393687212,4.27055078896357e-06,-3.44711155628419e-05
-0.00211713326675494,0.000712311310309846,1.88653880730575e-05,-4.03454241901921e-05
-0.00211646569469367,0.000716733975215791,2.4563094286383e-05,-3.76015042761315e-05
-0.00211913598293877,0.000719440026249887,1.76021769791675e-05,-3.43442326153496e-05
-0.00213000787079381,0.000720071835522165,6.09608840958342e-06,-3.53036791590234e-05
-0.00213737500532717,0.000715601486897557,3.94227056413434e-06,-3.83889141757631e-05
-0.00213738692625683,0.00071047548714134,8.66784717593547e-06,-4.2600554066521e-05
-0.00214396727943225,0.000703191799115646,-2.22465515262551e-06,-5.19891884888145e-05
-0.00218212617529191,0.000688171427736963,-3.84975750257312e-05,-6.58394598630385e-05
-0.00222337259193495,0.000682485144286462,-7.27187127187834e-05,-7.0856194816138e-05
-0.00222055925253387,0.000698518794686722,-6.9081676914159e-05,-5.31378572147878e-05
-0.00218335403104747,0.000736224695219081,-3.01307979117172e-05,-1.76648913835783e-05
-0.0021457554188821,0.000764441535737606,7.11652601209843e-06,1.26134953765617e-05
-0.00214138043769481,0.000770163581977104,1.85755017620493e-05,1.97133451393131e-05
-0.00215185893487089,0.000756812140751609,1.37875794433924e-05,7.09241440019669e-06
-0.00215169204185558,0.000741708322865267,1.02901781153265e-05,-8.3704074139563e-06
-0.00215089333956798,0.000734829946448204,1.45156879615499e-05,-1.38949539316559e-05
-0.0021411420191015,0.000740087076430742,3.52426077612155e-05,-5.78557395571441e-06
-0.00208698523563059,0.000763404414856697,8.88585072941381e-05,1.68381054724405e-05
-0.0020012975931941,0.000798678445737269,0.000173125862236406,5.38500856021209e-05
-0.00193231117321915,0.000841951420423473,0.000252467782713137,9.84979389724983e-05
-0.00189939748641238,0.000878500990778267,0.000288387052284378,0.000136422782875585
-0.00191339265783981,0.000894761138842174,0.000276259661899956,0.00015502725891552
-0.00195361387453162,0.00089229350640139,0.000238333854936163,0.000152611987178278
-0.00201132309504289,0.000873589567756031,0.000188710349679793,0.000135423729584737
-0.0020826102544433,0.000841057350698551,0.000120028602526413,0.000106692336966433
-0.00218298448222783,0.00079821352948031,2.09674705477248e-05,6.31307205610966e-05
-0.00231412662947933,0.00073726181609999,-0.00010458162458866,4.81451686630967e-06
-0.00244985833465209,0.000675809423673715,-0.000233568231990838,-5.50387382409659e-05
-0.00254685893934124,0.00063281063036982,-0.000331391812849551,-9.63504979977103e-05
-0.00258702055138472,0.000617516077608828,-0.000367934461667412,-0.000109472349552251
-0.00256447807338703,0.000624418295885223,-0.000335129160825434,-0.000101594468148344
-0.00247459426370825,0.000640320816059161,-0.000248671115547683,-8.38117441364117e-05
-0.00236156000861883,0.000664567986999034,-0.000130962426118049,-5.74037698434395e-05
-0.00223509086579626,0.000701510948032793,1.21871686783621e-06,-1.87968461419925e-05
-0.00210992110430724,0.000744712397141003,0.000130287221072786,2.53693599844128e-05
-0.00200675737898096,0.000774288223641409,0.000231783183532125,5.72023922844184e-05
-0.00195903789752948,0.000780022190810572,0.000286154204798441,6.42571721915536e-05
-0.0019546271535532,0.000765967414734805,0.000292791369601616,5.19734623823884e-05
-0.00198329698939902,0.000748789355086646,0.000266103325577074,3.61899034842629e-05
-0.00203069460574952,0.000738680406730199,0.000222218532824713,2.69260056629541e-05
-0.00207897437089529,0.000732517286093073,0.000173143125904679,2.30432523180984e-05
-0.00213071120564408,0.00072852377465509,0.000125330669207186,1.96990763478291e-05
-0.0021845222821547,0.000722730202837598,7.66250302018795e-05,1.51944325009105e-05
-0.00223674787501978,0.000715541882249229,2.0451896512183e-05,9.47487695302236e-06
-0.00230045332315286,0.000705838245501414,-4.18767276670059e-05,7.10258829620054e-09
-0.00236498131543287,0.000687468092886692,-9.99375322378345e-05,-1.72473173442664e-05
-0.00241242661550204,0.000659334698875826,-0.000148876797906647,-4.29247450714063e-05
-0.00245637908317918,0.000631928481574564,-0.000195611575478104,-7.22034108850328e-05
-0.00251069083873575,0.000605094468897251,-0.000245844047861601,-9.77653310311491e-05
-0.00256081834797969,0.000587308441836145,-0.000295778206370846,-0.00011295179604896
-0.0026058198574674,0.00058999065101091,-0.000339889635539609,-0.000111851479563622
-0.00263229624225475,0.000612008608103311,-0.000369872991515208,-9.04661456381495e-05
-0.00262234226598395,0.000646936932023581,-0.000358973349161237,-5.23051741161556e-05
-0.00253927722807391,0.000690484088092094,-0.000272027765609419,-1.11531379380605e-05
-0.00237540020796062,0.00071940426346089,-0.000113604830755489,1.77693411300271e-05
-0.00221176160644064,0.000729715867621652,4.90221636361343e-05,3.07185372130951e-05
-0.00212695611279941,0.000738036676528256,0.000137443065449732,3.47458786397981e-05
-0.00212870848946026,0.000735807462680785,0.000131762725427406,3.35036441090907e-05
-0.00218679917972083,0.00072035793783414,7.012984537908e-05,2.14928811720595e-05
-0.00227137817569841,0.000701510948032793,-8.6735421560278e-06,-3.13127559457388e-06
-0.00234782709764404,0.000677299539881917,-9.1546318916031e-05,-2.81394167379163e-05
-0.00241640820601035,0.000661480466215638,-0.000164498457680869,-3.92352316548385e-05
-0.00245859637609699,0.000665807763684259,-0.000198940407268217,-3.88961564480524e-05
-0.00243587508415431,0.000665736238106265,-0.000182185484680659,-4.28709404179931e-05
-0.00238692774694727,0.000647616425014521,-0.000138797959947786,-5.79803428748036e-05
-0.00235251202300263,0.000633049048963132,-0.000101951897903968,-7.28572897878328e-05
-0.00232827677299242,0.000637233295275765,-7.52057194389721e-05,-7.27228247789367e-05
-0.00228520645411053,0.000656235257162765,-3.75444936897429e-05,-5.49863908316691e-05
-0.00221953405258262,0.000682127516396494,2.16606180475088e-05,-2.71746978960667e-05
-0.00216300500410825,0.000714910072976951,8.51402801296094e-05,2.32642279566554e-06
-0.00212577594076252,0.000740516229898705,0.000121271980042288,2.62488918925207e-05
-0.00213187945675131,0.000751960322377701,0.00010972602170732,3.82579623207987e-05
-0.00217527164073417,0.000755918071026687,6.1688243804178e-05,3.84489466742602e-05
-0.00222518457324413,0.000752484843282988,2.0247593919761e-05,3.57294104128473e-05
-0.00221331132729717,0.000755727336152037,2.98763291408848e-05,3.80848302114598e-05
-0.0021396876656823,0.00076317791719305,9.48527045590152e-05,4.20358476338224e-05
-0.00206508648783484,0.000758886382513427,0.000173519009661744,3.7202077897083e-05
-0.00202090752249405,0.000742113634473898,0.000221226985940301,2.03110730258493e-05
-0.00200562489066272,0.000722444100525624,0.000232390539398563,-2.63309992817693e-07
-0.0020028949977693,0.000712609333551486,0.000233000467972026,-1.33890129099689e-05
-0.00199732792361545,0.000713396114909417,0.000241360372580059,-1.40603631189463e-05
-0.00198842298915523,0.000721597714519364,0.00025014783453067,-3.80476396030133e-06
-0.00199556362602494,0.000739443346228799,0.000243839236277107,1.24904390251973e-05
-0.00201864254585758,0.000760436103369957,0.000219734269965841,2.84503646122136e-05
-0.00204863560489628,0.000769531772704826,0.000188844887028646,3.89001075718798e-05
-0.00207550538036259,0.000771784828411628,0.000164860229666042,4.36072510008893e-05
-0.00208777201698852,0.000779330776889966,0.000155473679103275,4.68237999833321e-05
-0.00208110821730543,0.000786340283533352,0.000158116616175434,5.16465991140556e-05
-0.00208041680338483,0.000789499329894741,0.000160311362516825,5.65899980105922e-05
-0.00209659350494108,0.000790786790298628,0.000147968619905916,5.9039314530153e-05
-0.00212759984300136,0.000794351148268649,0.00011701932752215,5.94984589315216e-05
-0.00216971648750999,0.000796294259804145,7.634766882367e-05,5.94540569251388e-05
-0.00220378650449434,0.00079129939027425,3.91293671899529e-05,5.69700402016241e-05
-0.0022338272472517,0.000782656716266675,1.32087661424676e-05,4.92602776748839e-05
-0.00225390209280861,0.000776255177036236,-6.443578564684e-07,4.00443202122301e-05
-0.00225319875795834,0.000776147888669246,-5.40407175180949e-06,3.87839824243673e-05
-0.00225070728365822,0.000783407734835609,-5.563141426369e-06,4.90023200857695e-05
-0.00226143612035728,0.000795221376134239,-6.48094670933544e-06,6.14172791399404e-05
-0.00227053178969215,0.000799822854985169,-1.35313185087241e-05,6.37688783119613e-05
-0.00228081955199358,0.000790500687986653,-3.22179324991904e-05,5.43739070246091e-05
-0.00231869234554126,0.000772821949292537,-6.90618730842059e-05,3.93615355753229e-05
-0.00238986029564502,0.000752401396775329,-0.000127971433180939,1.91350882996771e-05
-0.00245752349242708,0.00072084669595043,-0.000201036165955077,-1.23489120903376e-05
-0.00251399293625313,0.000680375139735647,-0.000266100575948034,-5.38742155317413e-05
-0.00256207004559458,0.000638759174272965,-0.000302810452257833,-9.38684206196144e-05
-0.00257219091488069,0.00060286525504978,-0.000313601635305045,-0.000125779412296036
-0.00257457510081381,0.000575351749381527,-0.000319819377593439,-0.000155073374067038
-0.00258491054683391,0.000551068815652657,-0.000331325730449195,-0.000182017299603693
-0.00258471981195926,0.000539171727846368,-0.000329665519438796,-0.000188371360115584
-0.00255086437170889,0.00056753161952088,-0.000292397796196468,-0.000156088219009203
-0.00247861161700556,0.000634765662834982,-0.000226397041249717,-9.42741167658244e-05
-0.00241099610394216,0.000696599525010557,-0.000161472434423904,-3.24110173792114e-05
-0.00237109675235133,0.000731527848930827,-0.000115287959152212,1.13149148955879e-05
-0.00233329548438164,0.000760328815002967,-8.32361855645203e-05,3.98758331550234e-05
-0.00230582966243205,0.000784373330138524,-6.0833662202841e-05,5.7131030097364e-05
-0.00230169309983808,0.000778234051360729,-5.04048563122418e-05,5.75573544388945e-05
-0.00228257192865443,0.000756740615173615,-3.87572583673085e-05,4.22926426635709e-05
-0.00223565114949054,0.000746166750560209,3.26829966546425e-06,2.69077626070162e-05
-0.00216611636675098,0.000741660639146604,7.96486157229449e-05,2.09251788358538e-05
-0.00208752167746554,0.000726640267767922,0.000149768979468093,1.36315649783131e-05
-0.00205613386965596,0.000705814403642082,0.000175172526804284,-4.86582540733291e-06
-0.00206580174361478,0.000697183650564173,0.000168809893134629,-1.96187703420827e-05
-0.00206362021348597,0.000704753440901842,0.000168601900579537,-6.84037503179335e-06
-0.00204936278160589,0.000738358541629227,0.000175516343413619,3.05583042469604e-05
-0.00206506264597551,0.00077115301913935,0.000155199153365623,6.2526621400316e-05
-0.00212558520588787,0.000778007553697082,9.78706151740304e-05,6.88006904846832e-05
-0.00218262685433786,0.000767004535615714,3.57870363609707e-05,6.02125524923876e-05
-0.0022194029223563,0.000759685084801023,-8.49569276014516e-06,5.77180232965098e-05
-0.00226292623656548,0.000769245670392851,-5.34766539936285e-05,6.34941866123691e-05
-0.00232635750331625,0.000765359447321859,-0.00011812154139336,6.21187080970316e-05
-0.0023858429423477,0.000742471262363867,-0.000180436369830171,4.2369882693058e-05
-0.00240240111365325,0.000708520454676178,-0.000204054352299496,7.77900774007038e-06
-0.00237985863565556,0.000667679349641761,-0.000185949535027661,-3.13798975740717e-05
-0.00234688534420045,0.000631332435091283,-0.000149531181329048,-6.7456303457467e-05
-0.00229625715591056,0.000603079831783761,-0.000104144348774569,-9.46449460287099e-05
-0.00222308648962298,0.000590264832393219,-4.06112532933269e-05,-0.000103766052670705
-0.00214564813051511,0.000613629854537836,4.00642349023845e-05,-8.36361987742934e-05
-0.00206241619958974,0.00066362623355545,0.000121824840648861,-3.19605342588235e-05
-0.00198158037552717,0.00072563890967601,0.000196232471264287,3.45608915587207e-05
-0.00191023361147842,0.000780439423348869,0.000264785750110763,8.63918838242889e-05
-0.00185879479997127,0.00079696183186542,0.000316649127026206,0.000103529603440885
-0.00184309493560165,0.000782060669783394,0.000328639635836376,9.08791185833421e-05
-0.00187501918524618,0.000757634684898536,0.000295572068144012,6.75149042990332e-05
-0.00192868721060081,0.000734818025518538,0.000241714461475945,4.42503064533553e-05
-0.00196887266450361,0.000711715263826565,0.000192629315434679,1.94262044935593e-05
-0.00201897633188822,0.000681948702451509,0.000150766835714908,-6.1621754004673e-06
-0.00205975783227431,0.00066438917305405,0.000108199345057491,-2.34998521021893e-05
-0.00208933365877471,0.000662207642925241,6.87517763016033e-05,-2.89687586315849e-05
-0.00212042344334265,0.000656533280404406,4.3520042237186e-05,-3.23176339742109e-05
-0.00213629020072759,0.000644958057699088,3.19402759874125e-05,-4.20152597591375e-05
-0.00214160693535846,0.000638020076633696,1.91486181579164e-05,-5.04998901519028e-05
-0.00217204106879479,0.000643241443827238,-1.06051916250557e-05,-4.55745758200286e-05
-0.00222911848003378,0.000656580964123068,-6.36288657679763e-05,-3.25139553478874e-05
-0.00229955925342794,0.00065526966185985,-0.00013389489699579,-3.13526607573125e-05
-0.0023698927384551,0.000637006797612118,-0.000203646784848326,-5.00783423573976e-05
-0.00241543068977777,0.000619745291456299,-0.000251727712486465,-7.1813409762146e-05
-0.00243599429345097,0.000611782110439665,-0.000267385668619237,-7.46548793057342e-05
-0.00242589726602419,0.000631439723458274,-0.000252397956027673,-5.63308215555637e-05
-0.00237721218926979,0.000657987633823611,-0.000208221563455869,-3.14044346566256e-05
-0.00230268253700033,0.000679779093252366,-0.000131923825700331,-9.84797077264423e-06
-0.00221189273666696,0.000699293655114988,-3.23252577130844e-05,1.02545218543667e-05
-0.00211581004356206,0.000716626686848801,6.08992970591899e-05,2.87649783280427e-05
-0.00206116450197485,0.000725817723620994,0.000118447579940906,3.4494751380295e-05
-0.00204395067953769,0.000708866161636481,0.000138063493561468,1.85685906693461e-05
-0.00204646599569714,0.000681638758280203,0.000139107862330964,-8.39088140085147e-06
-0.00205498946040806,0.000668537656577686,0.000135430809229818,-2.24688438605654e-05
-0.00206010353923461,0.000679588358377716,0.000127302493894455,-1.11839908749529e-05
-0.00207748425468709,0.000708067459348885,0.000116634681591461,1.45481899190793e-05
-0.00208739054723922,0.000727367444477525,0.00011125270858089,3.51483593538009e-05
-0.00208776009605885,0.000732731862827054,0.000109361373582276,4.23204511183895e-05
-0.00210596335565825,0.000735855146399447,9.65244207791785e-05,4.0026468134355e-05
-0.00213828099598175,0.000727307839829197,6.79995593211665e-05,3.26430333108478e-05
-0.00216511500865907,0.000713884873025708,4.08344323147444e-05,2.1652225911359e-05
-0.00218153012880862,0.000707542938443597,3.017745215189e-05,1.18893800586208e-05
-0.0021917344446024,0.000707185310553629,2.28954544155924e-05,1.01940306303621e-05
-0.00222083343391618,0.000710940403398299,-7.76157796752208e-06,1.47057085938799e-05
-0.00228388323091765,0.000709080738370462,-6.30549232315755e-05,1.40561422661517e-05
-0.00233162655422846,0.000701677841048112,-0.00011082601120023,2.78614800142277e-06
-0.00234395279550271,0.000690352957865772,-0.000121015422236326,-8.89594913032812e-06
-0.00232313885230654,0.000689327757914529,-9.70038118015165e-05,-7.85262354400861e-06
-0.00229306234676017,0.000703263324693639,-6.58869852762899e-05,3.98015413853561e-06
-0.00227954401251936,0.000714910072976951,-4.91559685465141e-05,1.2660953482033e-05
-0.00228523029596986,0.000710082096462375,-5.30665938952274e-05,1.11217512019847e-05
-0.00231148018309356,0.000707912487263232,-7.8703033781298e-05,5.92384829829469e-06
-0.0023577929948445,0.000707566780302929,-0.000123995297229685,4.70024699111276e-06
-0.00241135373183213,0.000707852882614903,-0.000173051869888806,5.95484004152305e-06
-0.0024352194330227,0.000709688705783409,-0.000197061000033803,5.1092955035314e-06
-0.00241160407135511,0.000707554859373263,-0.000176102906488323,3.67499934179408e-06
-0.00235902085060005,0.000711715263826565,-0.000116997091715622,6.99425244954299e-06
-0.0022854925564225,0.000723445458617536,-4.46389798209375e-05,1.69703665072671e-05
-0.00222085727577551,0.000737476392833971,1.93445004721665e-05,3.10880960947528e-05
-0.00217940820332814,0.000750851675918798,6.26301569124271e-05,4.42550012689986e-05
-0.00216685546439025,0.000756478354720971,7.37678570001038e-05,4.76493208129918e-05
-0.00220055593255496,0.000740599676406364,4.41732948188874e-05,3.2146050306209e-05
-0.00225796712982459,0.000710594696437996,-1.5354605735935e-05,1.01629286155788e-06
-0.00231056227150931,0.000685691874366514,-7.12006305561795e-05,-2.46837073786603e-05
-0.00233491673081617,0.000687027018489064,-9.14686607990909e-05,-2.38269605494169e-05
-0.00231744064792637,0.000713455719557745,-7.14719936299316e-05,9.71707673348874e-07
-0.00226731313868243,0.000738191648613909,-2.86304682954182e-05,2.55230161966809e-05
-0.00221785320149977,0.000743866011134744,2.15287965381807e-05,3.12727106861944e-05
-0.00217279208736372,0.000737690969567953,7.24889731779913e-05,2.1954096081082e-05
-0.00212802899646932,0.000725674672465007,0.000113531419604086,1.09426731669596e-05
-0.00210942042526128,0.000717842621674694,0.000126914244977291,2.25454011054387e-06
-0.00213346494039684,0.000708639663972834,0.000105800881418604,-8.80094769754052e-06
-0.00218015922189708,0.000694572966967402,6.45432140744219e-05,-2.33802386382802e-05
-0.00221292985754787,0.00068099502807826,2.2401489722802e-05,-3.70707932113734e-05
-0.00225151790687549,0.000672578851734331,-1.68350440415353e-05,-4.73889752884736e-05
-0.00230493559270713,0.000665044824185659,-6.26519014262572e-05,-5.54641942840045e-05
-0.00235766186461817,0.000659275094227498,-0.000121923431775996,-6.13009597064658e-05
-0.00242558732185288,0.000659382382594489,-0.000191109525845376,-6.36199076987371e-05
-0.00249154582569276,0.000659370461664823,-0.000255124204568848,-6.34301939324307e-05
-0.00252066865686587,0.000661551991793632,-0.000284888133278827,-6.20109721598353e-05
-0.00248124614246167,0.00066841844728103,-0.000246935869545355,-5.63910574781712e-05
-0.00236796154784927,0.000683629553534362,-0.000133316226087571,-4.266909827376e-05
-0.00221374048076513,0.000703108352607986,1.97474917027957e-05,-2.30576023992601e-05
-0.00207443249669269,0.000722634835400273,0.000158171769612044,-3.97201668337259e-06
-0.00198010218024863,0.000740933462437001,0.000255896658022803,1.17656319456088e-05
-0.00190978061615113,0.000753235861851922,0.000322271116922269,2.44968048922433e-05
-0.00186429034854712,0.000760340735932632,0.000366597597216621,3.0732024443785e-05
-0.00185897361391625,0.000755000159442434,0.000376138595597893,2.45911290678431e-05
-0.00189749013766588,0.000738275095121568,0.000336563938694084,7.16610644998491e-06
-0.00197395098054117,0.000720369858763806,0.000256539921028561,-1.2608246893627e-05
-0.00207295430141415,0.000704383892082208,0.00015995192056497,-2.74775975397501e-05
-0.00216830981780945,0.00069702867847852,6.7002262958928e-05,-3.54803773957421e-05
-0.00223679555873844,0.000701379817806471,-4.37639778366276e-06,-3.40672159128232e-05
-0.00226588262712256,0.000713884873025708,-3.25718406909027e-05,-1.99834940766499e-05
-0.00224171890269034,0.000736701532405706,-8.8678125847729e-06,2.58716687315568e-06
-0.0021920443887737,0.000759518191785705,4.36029469678313e-05,2.31797891357893e-05
-0.00214959395823443,0.000773668335298797,8.54302687284569e-05,3.82500640098603e-05
-0.00213600409841562,0.000789833115925378,9.6933313085996e-05,5.40570465782038e-05
-0.00214819920946355,0.000809073496405691,8.65463759541708e-05,7.17720671267488e-05
-0.00217183841299048,0.000815784979807435,6.53371072643775e-05,8.01727766388519e-05
-0.0022065044764581,0.000807607222056819,3.01303510873972e-05,7.09826110586314e-05
-0.00225605978107809,0.000790309953112003,-2.29324816332484e-05,5.23643431876008e-05
-0.00231776251302734,0.000773596809720803,-8.15633004515891e-05,3.74734249156263e-05
-0.00236432566430126,0.000763464019505025,-0.000123654794937085,2.7120139960914e-05
-0.00237070336167236,0.000751292750316426,-0.000135669630339575,1.44818287583378e-05
-0.00235484852521709,0.000736606164968381,-0.000120986355486257,1.63457624855907e-07
-0.00233559622380711,0.000726532979400931,-9.51831246034839e-05,-1.06779822840652e-05
-0.00231304182487975,0.000711131138272949,-7.49573987852553e-05,-2.22057577610875e-05
-0.00230195536029073,0.000691294711309356,-6.57677125204529e-05,-4.42261992463321e-05
-0.00229413523043008,0.000663292447524813,-5.90849211337738e-05,-7.38772736257901e-05
-0.00228531374247752,0.000639081039373937,-4.6814386526909e-05,-9.29510498093065e-05
-0.00227496637552776,0.000645983257650331,-3.46390680509104e-05,-8.61005049277899e-05
-0.00226267589704251,0.000680267851368657,-2.94310746581217e-05,-5.34213250752461e-05
-0.00224955095348066,0.000728213830483784,-1.67602174274536e-05,-5.05320697889145e-06
-0.00221385969006179,0.000774908111984021,2.77590126540712e-05,4.64232213924846e-05
-0.00213960421917464,0.000815105486816495,9.61069991119632e-05,8.6914351286691e-05
-0.00209174168656717,0.000836420109058625,0.000136464045307702,0.000105231838981029
-0.00213286889391356,0.000828933765228615,0.000102677222601417,0.000101671529681525
-0.0022323013682545,0.00081021790565359,5.18292322551487e-06,8.61045670871267e-05
-0.00233327164252231,0.000789630460121063,-0.000104894712750903,6.58235938620759e-05
-0.00242214217317952,0.000767958209988964,-0.00019379377144456,4.17458605407129e-05
-0.00249664798358965,0.000736916109139687,-0.000265217994301611,1.5922500331532e-05
-0.00255726591093933,0.000710415882493012,-0.00032646215297611,-7.37526746383533e-06
-0.00258888021641256,0.000691032450856712,-0.000363873503363235,-2.94186197742099e-05
-0.00258712783975171,0.000662720242900863,-0.00036511810115648,-5.47026893469197e-05
-0.0025728108032233,0.000637424030150415,-0.000345661123832724,-7.7649815834682e-05
-0.00255670562724505,0.000629222430540468,-0.000331908468637868,-8.34337268984367e-05
-0.00254111305124241,0.000644171276341157,-0.000324195158136019,-6.80143848611362e-05
-0.00251040473642377,0.000665211717200978,-0.00029367315900785,-4.6451359243361e-05
-0.0024371267817692,0.000673461000529587,-0.000215865392813754,-3.33065773033816e-05
-0.00231301798302042,0.000682520907075459,-9.51584279489377e-05,-2.44327375736996e-05
-0.00216158641347804,0.000697362464509157,4.40099316271565e-05,-8.06654427496162e-06
-0.00203611862874738,0.000715827984561204,0.000177164205999094,1.40439544715116e-05
-0.00193043958726165,0.000731468244282499,0.000286608438796812,2.89480315801144e-05
-0.00183974515436561,0.000731563611719824,0.00036030385937479,3.22841579499841e-05
-0.00180941830929627,0.000730776830361893,0.00039523926434386,3.41823465368596e-05
-0.00180968056974891,0.00074129109032697,0.000399311950644911,4.50798683741816e-05
-0.0018174172531019,0.000758898303443092,0.000382772798478493,6.36125986170491e-05
-0.00184636127033003,0.000772392795824575,0.000349577483586811,7.9520315772404e-05
-0.00189821731437548,0.000771451042380991,0.000302823897213018,8.32232363722408e-05
-0.001941621419288,0.000763237521841378,0.000254766148105411,7.2168627742895e-05
-0.00197042238536014,0.000740814253140345,0.000220460784501496,5.15464656305189e-05
-0.00199468147722968,0.000714397473001329,0.000199778739038092,2.90186229258102e-05
-0.00201466095534926,0.000690770190404069,0.00017617573502001,7.71394833160064e-06
-0.00204672825614978,0.000671541730853422,0.0001385137086425,-1.3334422769955e-05
-0.00209542525383385,0.000652897396856391,9.43610006739955e-05,-3.23827889840462e-05
-0.00213371527991982,0.000633716621024407,5.33489559520394e-05,-4.55256680634663e-05
-0.00217106355256221,0.000620842016985537,7.44421199577344e-06,-5.59794741261378e-05
-0.00224211229336931,0.000609850919833834,-5.67964128186496e-05,-7.33573515993119e-05
-0.00231306566673909,0.000583982502459437,-0.000130087260327769,-9.74314718082138e-05
-0.00235983147381732,0.00056023601056552,-0.00018180849352111,-0.00011122115706211
-0.00236740126415499,0.000577151809761036,-0.00019192825071905,-9.92618176548769e-05
-0.00234781517671437,0.000616943872984879,-0.000166518008000985,-6.61661446473211e-05
-0.00229707970005749,0.000645494499534041,-0.000118517082791231,-2.75936490600847e-05
-0.00222171558271143,0.000681495707124216,-5.2336972899331e-05,1.01506537522163e-05
-0.00215566171143423,0.000727307839829197,2.16130165206912e-05,4.87546617171378e-05
-0.00210152876982264,0.000757849261632518,7.55042289900042e-05,8.10374684599769e-05
-0.00208390963577686,0.000765657470563499,8.74740514132157e-05,9.14271209015678e-05
-0.00210260165349255,0.000746679350535831,6.79838453414552e-05,7.50584010524766e-05
-0.00213154567072068,0.000721669240097358,4.4117716977785e-05,4.43960214470652e-05
-0.00214905751639947,0.000693512004227162,2.31502854265973e-05,1.41957894358307e-05
-0.00218082679395835,0.000661718884808951,-9.16488453957436e-06,-1.06623597443739e-05
-0.00222812904287154,0.000642728843851617,-5.78600991554363e-05,-3.14196058388937e-05
-0.00228215469611613,0.000630342997929036,-0.000108313669210225,-5.04186026539891e-05
-0.00232094540124806,0.000607359445533719,-0.000147608465326121,-7.21528339565318e-05
-0.00234423889781468,0.000575101409858549,-0.000174339877117693,-9.85642338558853e-05
-0.00235621943212863,0.000560295615213848,-0.000182925481306672,-0.000119819173820853
-0.00233663334468802,0.000563705001098216,-0.000162573811039239,-0.000120120758726785
-0.00229661478380053,0.000582730804844547,-0.000123604631701737,-9.70407721881785e-05
-0.00227632536150964,0.000615453756776676,-0.000101860351732068,-6.50973655940116e-05
-0.00229047550502273,0.00064941648539403,-0.00011669472553563,-3.5504771549685e-05
-0.00231642736890479,0.000683295767503724,-0.000139686248299197,-3.64605916756646e-06
-0.00230349316021759,0.000719904942506846,-0.000127429456695769,3.5930870937417e-05
-0.00225385440908995,0.000760602996385276,-7.63919058671346e-05,7.29679820337811e-05
-0.00220149768599854,0.000781858013979078,-2.30390230063821e-05,9.11705643479479e-05
-0.00217340005477667,0.000777351902565473,4.89110926098272e-06,8.77276346868491e-05
-0.00216870320848842,0.000764310405511284,1.31991443149513e-05,7.22876868171971e-05
-0.00216497195750308,0.000745844885459237,1.77542491685104e-05,5.12441701975145e-05
-0.00215940488334923,0.000718462510017306,2.14107936051447e-05,2.43735349025647e-05
-0.00216212285531299,0.000692653697291237,2.2767642136002e-05,-4.86669836209763e-06
-0.00215923799033391,0.000672602693593663,2.80894096610676e-05,-2.63327871839705e-05
-0.002146828302552,0.000667548219415439,4.14957555472045e-05,-3.18999365298635e-05
-0.00212981713591916,0.000680816214133275,5.60554902549747e-05,-2.11591625986918e-05
-0.00212429774548398,0.000703847450247255,6.65344660065527e-05,7.47285241482613e-07
-0.00211553586217975,0.000731182141970524,8.05645281423999e-05,2.54380652848762e-05
-0.00208803427744116,0.000750529810817826,0.000104682043396384,4.37368615896242e-05
-0.0020639897623056,0.000758492991834461,0.000127595072869404,5.25061735694658e-05
-0.00206975949226376,0.000769496009915829,0.000131431050565729,5.74411004817659e-05
-0.0020867706588966,0.000774538563164387,0.000115488712914902,6.33220281432354e-05
-0.00210155261168197,0.000775992916583593,9.57318406616678e-05,6.50921202238374e-05
-0.00212035191776466,0.000770974205194366,8.2383392019402e-05,5.63636881067836e-05
-0.00213797105181045,0.00075942282434838,7.04202304054214e-05,4.25180771845007e-05
-0.00215535176726292,0.000749528452725914,5.28716548153338e-05,3.39329536906516e-05
-0.0021756769523428,0.000744998499452978,3.16459473214419e-05,2.78369375591262e-05
-0.00219854129544147,0.000730586095487243,1.13057401424063e-05,1.03093323976587e-05
-0.00222640050807002,0.000699508231848969,-8.58529497101e-06,-2.12082214261286e-05
-0.00224487794905173,0.000670003930926557,-2.90568654130569e-05,-4.99909702416193e-05
-0.00226002945065674,0.000661921540613266,-4.4962721276331e-05,-5.99599489998947e-05
-0.002268397943282,0.000671839754095063,-4.74487221958522e-05,-5.30311338857894e-05
-0.00225507034391584,0.000682747404739106,-3.12050275974087e-05,-4.04605085447415e-05
-0.00222496999651015,0.000695228618099011,9.18144089318337e-07,-2.71860290993853e-05
-0.00218756211921943,0.000714182896267348,3.61014729425946e-05,-1.34898238080078e-05
-0.00217280400829339,0.000721728844745686,5.57958505794215e-05,-3.99489600966445e-06
-0.00218426002170205,0.000719344658812562,5.06556627221078e-05,-4.36891498876933e-06
-0.00219901813262809,0.000713968319533367,3.29073808197089e-05,-1.34111322126663e-05
-0.00220876945309457,0.000700962585268175,2.39788886740548e-05,-2.70951528327864e-05
-0.00221363319239814,0.000679791014182032,2.63688496513283e-05,-4.61295645509184e-05
-0.00221880687587302,0.000653970280526297,2.02247811722002e-05,-7.03221762315663e-05
-0.00224629653968194,0.000640797653245786,-3.8300553892675e-06,-8.90590961825307e-05
-0.00226398719930572,0.000639212169600258,-2.18562097246607e-05,-8.78687115528393e-05
-0.00224829925586577,0.000658977070985858,-3.18601524997358e-06,-6.39579169638302e-05
-0.00220193876039617,0.000700032752754256,4.68979321464504e-05,-2.73734742325223e-05
-0.00215932143684157,0.000739502950877127,9.02431911749132e-05,1.13050818023829e-05
-0.00214859260014251,0.000767850921621974,0.000101025381335709,4.54151367559295e-05
-0.0021631957389829,0.000790822553087625,8.8656194544254e-05,6.6630398891992e-05
-0.00218449844029536,0.000793564366910718,7.13651212578025e-05,6.75692238388289e-05
-0.00220931781585919,0.000775980995653927,4.72517532279311e-05,5.32026754722769e-05
-0.00225021852554193,0.000761556670758526,5.28574674660394e-06,3.99303331163482e-05
-0.00230548395547175,0.000760769889400595,-4.80035935154727e-05,3.87137429308773e-05
-0.00235216631604232,0.000767326400716686,-9.01537538926689e-05,4.60765580260351e-05
-0.00236974968729911,0.000774192856204084,-0.000107886975463576,5.45585858391026e-05
-0.00236930861290149,0.000782048748853728,-0.000109477861228556,6.32375691543012e-05
-0.00237708105904347,0.000790643739142641,-0.000114674940879998,7.26804703608655e-05
-0.00240606083906059,0.000793898152941355,-0.000140246586152376,7.75844084687987e-05
-0.00245580687855523,0.000788581418310488,-0.000189966880863277,7.22187444421531e-05
-0.00251169219682766,0.000773406074846153,-0.00024810656388177,5.85071935000595e-05
-0.00254997030198397,0.000754404112959153,-0.000286615479409861,4.20030194891929e-05
-0.00256059185031604,0.000735592885946803,-0.000290332357235685,2.36697039555813e-05
-0.00254082694893044,0.000715339226444913,-0.000272816047060236,2.20965187267566e-06
-0.00251829639186242,0.000690698664826075,-0.000255348748544653,-1.85275114170296e-05
-0.00249831691374283,0.000675320665557424,-0.000232607960805167,-3.1410504985157e-05
-0.00244824900914723,0.000675225298120099,-0.000175535986531913,-3.42372558430688e-05
-0.00233823074926321,0.000676679651539305,-7.25582590187857e-05,-3.10003254582585e-05
-0.00221544517370732,0.000676822702695292,4.7417203308299e-05,-2.63236032709748e-05
-0.0021247745826706,0.000681018869937591,0.000143641677490101,-2.29900900947583e-05
-0.00206286919491703,0.000682306330341478,0.000204995665120455,-2.26885640075748e-05
-0.00201636564829145,0.000677955191013526,0.000249706341641084,-2.39641967978429e-05
-0.00197381985031485,0.000678288977044164,0.000289193847447766,-2.13798658161062e-05
-0.00195248138621339,0.000688183348666629,0.000309189919944615,-1.24496187864434e-05
-0.00197821867336146,0.000696158450612929,0.000292002352493034,-3.91686940189223e-06
-0.00201759350404701,0.00069310669261853,0.000244988875886858,-4.92753268793716e-06
-0.00206153405079449,0.000682127516396494,0.000194249143050492,-1.48127236522675e-05
-0.00210978997408092,0.000672626535452994,0.000153904316683859,-2.43138115256836e-05
-0.00214909327918847,0.000667429010118783,0.000116207493537345,-2.87512389945029e-05
-0.00218046916606838,0.000663352052173141,7.6068242855452e-05,-3.23775526484881e-05
-0.00220315469522206,0.000656557122263737,5.00398291106984e-05,-3.82274615747368e-05
-0.00220540775092886,0.000650954285320895,5.53320033092256e-05,-4.18857662235325e-05
-0.00218403352403841,0.00065526966185985,7.67114458037552e-05,-3.96071205948947e-05
-0.00217382920824463,0.000659084359352848,7.50374261063215e-05,-3.5546702512019e-05
-0.00221743596896148,0.000656688252490059,3.38872625110635e-05,-3.42674705128813e-05
-0.00227680219869627,0.000661647359230957,-1.78618909552152e-05,-3.07761039867781e-05
-0.00228769792841064,0.000678527395637476,-3.84735247070208e-05,-1.60899656326366e-05
-0.00226458324578901,0.000700342696925562,-1.67861913808107e-05,8.66548978901475e-06
-0.00222450508025319,0.000721859974972008,2.40071947612143e-05,3.1024748303685e-05
-0.00219914926285441,0.000734007402301276,5.19112354454535e-05,4.05898015825496e-05
-0.00219984067677502,0.000729572816465665,4.40358156392412e-05,3.74820193608866e-05
-0.00225158943245348,0.000718760533258947,-6.39368843625993e-06,2.64468142459231e-05
-0.00232639326610525,0.000702786487507015,-8.16335654402786e-05,9.93983604648038e-06
-0.00238666548649463,0.000682270567552481,-0.00014440592252824,-8.62804467549548e-06
-0.00241130604811347,0.000672876874975972,-0.00016915715918327,-2.1213457924763e-05
-0.00240826621104873,0.000671696702939075,-0.000166584330234818,-2.28242176355445e-05
-0.00240358128569015,0.000670623819269169,-0.000165485325754121,-2.07502377787324e-05
-0.00241715922457929,0.000664746800944018,-0.000178526266378695,-2.78335244628538e-05
-0.00244082226996555,0.000651967564342473,-0.000201953721524759,-4.57304438780374e-05
-0.00247461810556758,0.000631058253708974,-0.00023712552104012,-6.26959074770691e-05
-0.0025173665593485,0.000621593035554471,-0.000283868021722708,-7.06275622499298e-05
-0.00255011335313996,0.000622141398319089,-0.000314973876850646,-7.5531232470334e-05
-0.00252661720076902,0.000613141096421545,-0.000290015809595168,-8.41224690276935e-05
-0.00243666186551224,0.00060765746877536,-0.000204834035784325,-8.73363913715942e-05
-0.00233321203787399,0.000627577342246612,-0.000101348382234935,-6.89999449290281e-05
-0.00224740518614085,0.000669062177482973,-1.54024786760106e-05,-2.94249702126069e-05
-0.00217084897582823,0.000711441082444255,6.04401408576992e-05,1.17314905160751e-05
-0.00208672297517794,0.000736129327781756,0.000145345916800858,3.92425699939994e-05
-0.00199996244907155,0.000757646605828202,0.000226799121133419,5.82929086644726e-05
-0.00195246946528372,0.000781929539557072,0.000276333240621722,8.02122002082488e-05
-0.00193737756832704,0.000800764608428753,0.000293397057517463,0.000101170401265123
-0.00192416917825754,0.000807452249971166,0.000302614777328511,0.000106028671711054
-0.00191290389972352,0.00079206232977285,0.000312220809131429,9.04637081267767e-05
-0.00192222606672204,0.000771331833084335,0.000304653553967628,6.8818506469734e-05
-0.00195394766056226,0.000761640117266185,0.000271721965131503,5.83053573658022e-05
-0.00199271452383486,0.000765931651945809,0.000232838436040797,6.23971181684413e-05
-0.00201612722969814,0.000775277660803655,0.000207203000272847,7.20194894209804e-05
-0.00203366291723626,0.000782108353502056,0.000186792665109716,7.71699820477001e-05
-0.00207332385023378,0.000779855297795254,0.000151298699500365,7.36170318416405e-05
-0.0021255375221692,0.000766968772826718,9.80791991275703e-05,6.22336050853538e-05
-0.00217442525472791,0.000751900717729373,4.26742285828739e-05,4.68837497344889e-05
-0.00222159637341478,0.000741386457764295,-4.03688782135629e-06,3.27874850457261e-05
-0.00226596607363022,0.000730884118728883,-4.45165249828447e-05,2.40416855362427e-05
-0.00230126394637012,0.000727522416563178,-8.07080653291368e-05,2.15050523271089e-05
-0.00231425775970565,0.000731444402423167,-0.00010428195916533,2.30590301439529e-05
-0.00232100500589639,0.00073513989061951,-0.000107567722590176,2.52850252421835e-05
-0.00231890692227524,0.000732386155866751,-9.89485789602127e-05,2.44794078286935e-05
-0.00231159939239021,0.000723862691155832,-9.93554231795768e-05,1.69841766537986e-05
-0.00232512964756069,0.000712668938199814,-0.000121745434511037,2.1727882369058e-07
-0.00236879601292586,0.000684857409289921,-0.00015820191947569,-2.50526463277697e-05
-0.00240464224843039,0.000654196778189944,-0.000190275663930645,-5.27374294229075e-05
-0.00241031661095122,0.000638890304499287,-0.000208628049460148,-7.30232943567334e-05
-0.00241615786648738,0.000634110011703373,-0.000216757451731054,-7.87484319893712e-05
-0.0024215938104149,0.000636959113893456,-0.000216605556817519,-7.15840250619785e-05
-0.00240288987176954,0.000649046936574396,-0.000198935054357299,-6.07316419077369e-05
-0.00234802975344835,0.000659513512820811,-0.000152520573961045,-5.46632935929278e-05
-0.00226991190134954,0.000656998196661365,-7.84469175351851e-05,-5.50378770790673e-05
-0.00218778861688308,0.000650215187681626,8.58377508066185e-06,-5.82476918996529e-05
-0.00210757268116311,0.00065306428987171,8.90773493105944e-05,-5.98603105048359e-05
-0.00204001677274804,0.000657856503597289,0.000145223752468752,-5.66834916540274e-05
-0.00201756966218768,0.000662243405714238,0.000164483946580709,-4.84409720361493e-05
-0.00204567921433921,0.000669848958840904,0.000145023170968167,-4.02430710052491e-05
-0.00208739054723922,0.000675034563245449,9.7387528432313e-05,-3.98121812981488e-05
-0.00213743460997549,0.000665545503231615,3.66997428036077e-05,-4.77067555871348e-05
-0.00220139039763155,0.000657713452441302,-2.48226674706178e-05,-5.25539483026994e-05
-0.00225543989273547,0.000670826475073485,-7.48347919503647e-05,-4.17376940614669e-05
-0.00227031721295817,0.000696992915689523,-9.85004773397968e-05,-1.70145651537676e-05
-0.00225942148324379,0.0007177710960967,-9.19197045498542e-05,5.43796706855707e-06
-0.00224570049319866,0.000723195119094558,-7.72211303764366e-05,1.20868072568117e-05
-0.00225795520889492,0.000718617482102959,-8.93159471252597e-05,5.66620529213388e-06
-0.00230170502076775,0.000713205380034767,-0.000137801765317768,2.69701022202812e-07
-0.0023459674326162,0.000717353863558403,-0.000187920780928097,5.94837684589475e-06
-0.00235202326488634,0.000732350393077754,-0.000189189394042056,2.0149405119128e-05
-0.00228180898915583,0.000743782564627085,-0.000123929977798998,3.20837117028226e-05
-0.00217744124993332,0.000744497820407022,-2.40815996426037e-05,3.32365030985816e-05
-0.00210011017919243,0.000736522718460722,5.82121503009839e-05,2.4560072152219e-05
-0.00205900681370537,0.000725615067816679,9.23815046018807e-05,1.47365725094867e-05
-0.00206328642745533,0.000721073193614077,8.4359787799726e-05,1.08057893642758e-05
-0.00209633124448843,0.000720512909919793,5.87907746613198e-05,1.0505242085901e-05
-0.00211857569924448,0.000717234654261747,3.32176687608924e-05,5.95033304019137e-06
-0.00213036549868378,0.000704991859495154,1.00395692588297e-05,-4.38563488800221e-06
-0.00216104997164309,0.000697100204056514,-1.11057414207468e-05,-1.03207666904573e-05
-0.0021746398314619,0.00071028475226669,-2.05894951323721e-05,4.20594905679752e-07
-0.00214697135370799,0.000737369104466981,-4.30822588609474e-06,2.81102066570122e-05
-0.00210343611856914,0.000765287921743865,3.87882939745165e-05,5.92501615483581e-05
-0.00206143868335716,0.000785756157979736,9.10865696646989e-05,7.9071589626746e-05
-0.00201873791329491,0.000791478204219234,0.000131816495273306,8.36212568765054e-05
-0.0019884349100849,0.000784587906872505,0.000154604699107228,7.90030103159715e-05
-0.00198142540344151,0.000776207493317574,0.000166374624266614,7.16368531567725e-05
-0.00198116314298887,0.000766909168178389,0.000173389560125081,6.24182224415413e-05
-0.00197746765479253,0.000754392192029488,0.000174653416225691,4.98936126717519e-05
-0.00198283207314206,0.000738358541629227,0.000166880259063877,3.53943936444573e-05
-0.00200604212320102,0.000724947495755404,0.000148931723457589,2.24360809694413e-05
-0.00203717959148762,0.000713586849784067,0.000121350862642194,1.22920251782291e-05
-0.00207278740839883,0.000704085868840567,8.76670820131214e-05,2.77864610973774e-06
-0.00210354340693613,0.000692319911260599,5.63224583797908e-05,-8.38197942969755e-06
-0.00212795747089132,0.000678694288652795,3.46706874715717e-05,-2.07684603235666e-05
-0.00214846146991619,0.000666427652026871,2.02472441341995e-05,-3.20795890262941e-05
-0.00216724885506921,0.000658011475682942,5.10785373164897e-06,-3.99938462700864e-05
-0.0021813989985823,0.000655865708343131,-9.93922637571954e-06,-4.2577076185924e-05
-0.002188646923819,0.000658619443095889,-1.42634151160963e-05,-3.85394736959587e-05
-0.00218654884019785,0.00066583160554359,-4.27363713861988e-06,-2.86129580938162e-05
-0.00217905057543818,0.000680208246720329,7.56745426470452e-06,-1.62846612076923e-05
-0.00217797769176827,0.000690531771810756,7.18082120671008e-06,-6.1336097431365e-06
-0.00219378484450488,0.000692296069401268,-4.22864908195568e-06,-8.12346054480147e-07
-0.00221183313201863,0.000694322627444424,-1.41850018107393e-05,1.08695649693846e-06
-0.00221540941091832,0.000700211566699241,-1.3977614823827e-05,4.50094117786386e-06
-0.00220758928105767,0.000706386608266032,-3.67675324828941e-06,1.38104729590946e-05
-0.00219162715623541,0.000720512909919793,1.09530910301318e-05,2.76011930486552e-05
-0.00219517959327576,0.00073121790475952,1.91820660003596e-05,3.82877396851409e-05
-0.0022126079924469,0.000731027169884871,9.84795952347941e-06,3.88689918553713e-05
-0.00223137153574059,0.000723195119094558,-1.64319081226301e-05,2.9580373786618e-05
-0.00226725353403411,0.000708866161636481,-4.59732670710746e-05,1.62120059697629e-05
-0.00230261101142234,0.000694453757670746,-7.04048020706951e-05,3.09094491194915e-06
-0.00233372463784961,0.000682807009387434,-9.65446714220208e-05,-9.75287314961443e-06
-0.00235960497615367,0.000671589414572085,-0.000127622390358211,-2.39510396051405e-05
-0.00238226666344802,0.000650918522531898,-0.000147872359314094,-4.10780315767812e-05
-0.00239446177449595,0.000629198588681137,-0.00014378407569276,-6.23679868910348e-05
-0.00238134875186376,0.000611710584861671,-0.000129087362104991,-8.49111604907366e-05
-0.00236510052472952,0.000598084962253866,-0.000122979657511801,-9.78534883076042e-05
-0.00235946192499768,0.00060400966429768,-0.000109386681827639,-8.85062810920032e-05
-0.0023170830200364,0.000641119518346758,-5.00333667232736e-05,-5.55553825499141e-05
-0.00220475209979725,0.00068600181853782,5.59519842142153e-05,-1.30612315290833e-05
-0.00209614050961378,0.000717175049613419,0.000155070303961627,2.0604037049589e-05
-0.00207083237593367,0.00073380474649696,0.000195882397225685,3.52579223447386e-05
-0.00209597361659846,0.000731837793102133,0.000179160407298797,3.12288397642199e-05
-0.00212768328950902,0.000716733975215791,0.000137163846867819,1.59976916188639e-05
-0.00217666638950505,0.000703799766528592,8.67062731425945e-05,8.77883464146278e-07
-0.00224964632091798,0.000697565120313473,2.50640073032008e-05,-5.87250918948452e-06
-0.00232179178725432,0.000696408790135907,-4.4394715902411e-05,-7.55452078061168e-06
-0.00237878575198565,0.000690925162489722,-0.000108254242924114,-1.5852191361907e-05
-0.00242754235431804,0.000674057047012868,-0.000158411005529324,-3.49368648043063e-05
-0.00247023120345063,0.000653266945676025,-0.000193567626529204,-5.42115640912923e-05
-0.00248986497460991,0.000648546257528439,-0.000212610027714406,-6.20382928312394e-05
-0.00249459758368716,0.000652349034091773,-0.000221066156829497,-6.07488922509663e-05
-0.00250153556475255,0.000652456322458763,-0.000232275658673962,-6.09558863775487e-05
-0.00251548305246133,0.000649321117956705,-0.000243587620786125,-6.5903891919319e-05
-0.00250208392751717,0.000646269359962306,-0.000223681482200367,-6.91924619122647e-05
-0.00241879239194348,0.000656545201334071,-0.000147251823637128,-6.31491894695458e-05
-0.00229282392816686,0.000678873102597779,-3.40147963428e-05,-4.0769064316958e-05
-0.00220168842087319,0.000724458737639113,7.12231227267946e-05,4.21994199855594e-06
-0.00212410701060933,0.000788152264842526,0.000149244292328541,6.50578945967447e-05
-0.00205090058153275,0.000836432029988291,0.000208342291087467,0.000112375767396374
-0.00201281321125109,0.000840008308887977,0.000242375349733304,0.000114816896920183
-0.0020400644564667,0.000802087831621637,0.000226534111517464,7.4899608879511e-05
-0.00209975255130247,0.000758039996507168,0.0001640175339118,3.07798706286225e-05
-0.00214624417699839,0.000743162676284473,0.000100916521963382,1.48262352831553e-05
-0.00217493785470354,0.000753116652555266,7.44313378057738e-05,2.18978699283684e-05
-0.00218622697509688,0.000758719489498108,7.21633089451457e-05,2.68237932742923e-05
-0.00218671573321317,0.000749576136444577,6.36336535389541e-05,2.03132976946947e-05
-0.00218774093316441,0.000746238276138203,4.83681105981141e-05,1.2911802631728e-05
-0.00219739688619357,0.000747060820285131,4.58632393325162e-05,1.14924216982738e-05
-0.00219290269570963,0.000743317648370126,5.50107574890819e-05,1.03271562415895e-05
-0.00218058837536504,0.000737822099794274,5.41626655354779e-05,5.91191836213395e-06
-0.00219572795604038,0.000741314932186301,3.377757954091e-05,4.92606034310211e-06
-0.00223587764715419,0.000749027773679958,5.45890151156397e-07,1.17912255750309e-05
-0.00228052152875194,0.000751400038683417,-4.77946709302264e-05,1.91180341294925e-05
-0.00234886421852495,0.000751638457276729,-0.000122907423644105,1.7760018255859e-05
-0.00244190707456512,0.000747013136566468,-0.000216654264331679,9.84879698060455e-06
-0.0025180937360581,0.00074061159733603,-0.000295535894810154,5.25745726692208e-06
-0.00255935207363081,0.000740921541507336,-0.000332262569328612,8.99053340457045e-06
-0.00254323497672289,0.000750422522450836,-0.000323917546882662,1.72873798618988e-05
-0.00248873248629168,0.000758218810452152,-0.000273535268814619,2.34408064367062e-05
-0.00239923014636219,0.000756335303564984,-0.000178710167195855,2.32577371320257e-05
-0.00227364315233488,0.000746798559832487,-5.41304264306772e-05,1.72537840829048e-05
-0.00215734256251708,0.000740551992687702,5.61969468063825e-05,1.14283890518505e-05
-0.00209813130486794,0.000745868727318569,0.000115611994947882,1.37946361594997e-05
-0.00207970154760489,0.000755405471051065,0.000136699372047663,2.62126726540507e-05
-0.00205332053025487,0.000764274642722287,0.000163891465324636,4.10938863246462e-05
-0.0019967199562025,0.000776040600302255,0.000215393679960526,4.96315508608808e-05
-0.00195015680492859,0.000778710888547354,0.000262626695184718,5.16571728607045e-05
-0.0019484878747754,0.000774824665476362,0.000270186577469751,5.34050040203595e-05
-0.00197987568258498,0.000776195572387908,0.000236667228300847,5.6976639049886e-05
-0.00202656996408522,0.000778794335055014,0.000186769199653596,5.74095657127237e-05
-0.00207915318484027,0.000769043014588536,0.000138669777713794,5.0907820333002e-05
-0.002127826340665,0.000757265136078902,9.39521492892002e-05,4.06747868648871e-05
-0.00216695083182757,0.000745368048272613,5.19360466324093e-05,3.1288618045414e-05
-0.00220136655577222,0.000732398076796417,1.81063337962197e-05,2.07334968407229e-05
-0.00222747339173993,0.000716245217099501,-2.7525661851187e-06,2.99129486798579e-06
-0.00223797573077534,0.000689423125351854,-1.20346617115141e-05,-2.17703477041876e-05
-0.00223921550746056,0.000660038033726098,-1.26444273202648e-05,-4.43452350377157e-05
-0.00222914232189311,0.000649678745846673,-3.28235773149933e-06,-5.64358814482177e-05
-0.00221308482963352,0.000648450890091115,2.04220015480656e-05,-6.05586640849435e-05
-0.00217446101751691,0.000635755099997228,5.97617745179458e-05,-6.55569724805328e-05
-0.00212453616407729,0.000626337565561388,0.000106729254624257,-7.26677971283893e-05
-0.00209355366787634,0.000630426444436696,0.000144424114920815,-7.16503573611878e-05
-0.00208251488700598,0.000646519699485284,0.000159549718812606,-5.40603461899259e-05
-0.00208164465914039,0.000670266191379201,0.000157213161965203,-2.62744339031072e-05
-0.00208635342635831,0.000690293353217444,0.000156146017231924,-3.84669038187538e-06
-0.00208338511487157,0.000701439422454799,0.000163658023211037,5.10930834749219e-06
-0.00208541167291472,0.00070116524107249,0.000162953808470957,4.7405018799096e-06
-0.00211139929958578,0.000692641776361571,0.000134150666065613,7.25281715800394e-07
-0.00217129005022586,0.000682807009387434,8.10027246125675e-05,-6.94667332499878e-06
-0.00222961915907974,0.000675833265533046,2.48535751140336e-05,-1.81042799721748e-05
-0.00227261795238363,0.000664806405592346,-2.2234595032026e-05,-2.76042029450183e-05
-0.00231717838747373,0.00065671209434939,-6.25413693768538e-05,-3.22908058011468e-05
-0.00235257162765095,0.000651752987608492,-9.39490817491183e-05,-3.68588571351968e-05
-0.0023622991062581,0.000645208397222066,-0.000106808224353611,-4.57866965985762e-05
-0.00235869898549908,0.000638198890578681,-0.000104369223799246,-5.35720077074816e-05
-0.0023660780409621,0.000637722053392056,-0.000106369295414391,-5.04714530779846e-05
-0.00238038315656085,0.000652349034091773,-0.000120786355312143,-3.51596929201705e-05
-0.00238319649596193,0.000677406828248908,-0.000128608047885381,-1.43719102969773e-05
-0.00236704363626502,0.000699329417903985,-0.000112655510190265,7.08897514074295e-06
-0.00235099806493509,0.00071594719385786,-8.90862398627702e-05,2.70600243270976e-05
-0.00234680189769279,0.000727486653774181,-9.08402319631832e-05,3.87035697905939e-05
-0.00237344517549546,0.000727283997969866,-0.000126760360113837,3.34182773794518e-05
-0.00243430152143845,0.000707161468694298,-0.000177716678547608,1.22452345398809e-05
-0.00248899474674432,0.000675237219049765,-0.000231160137069212,-1.57649080327392e-05
-0.00253894344204327,0.000642585792695629,-0.000297325881912183,-4.83212280478952e-05
-0.0026287080424254,0.00060765746877536,-0.000384370433980377,-9.11485222397654e-05
-0.00272661463776914,0.000559437308277923,-0.000473509660703922,-0.000139581521022589
-0.00277054326358695,0.000520527393849337,-0.000528509686345506,-0.000171263117531551
-0.00275099293893534,0.000530910523588092,-0.000520714818108415,-0.000167024133804475
-0.00268129126318045,0.000572991405307734,-0.000439817638774421,-0.000130454450051973
-0.00253157630750992,0.000625622309781451,-0.000293408448907675,-7.65420187243036e-05
-0.00233176960538445,0.000687134306856054,-0.000108405709377584,-9.8420335135068e-06
-0.00215317023713411,0.00077316765625284,7.33257839323709e-05,7.06584060831621e-05
-0.00201090586250459,0.00086117987997412,0.000213740444152785,0.000149182395442256
-0.00192480098752981,0.000897407585227941,0.000296180915307471,0.000194851705216905
-0.00188879977993964,0.000895237976028798,0.00032393425219905,0.000192151259942913
-0.00190193664443115,0.000870382837675979,0.000308306731321084,0.000158028049937624
-0.00194487583308672,0.00083392863475851,0.00026433701634514,0.000121501666577772
-0.00199362051448944,0.000802826929260905,0.000212185457289061,9.47749620422749e-05
-0.0020263673082809,0.000782656716266675,0.000171585780799534,7.18873559752168e-05
-0.00204142344244858,0.00076500181943189,0.000152055051861946,4.79847242432482e-05
-0.00204356920978839,0.00074273352281651,0.000151039380912014,2.79653111844894e-05
-0.00203313839633098,0.000731349034985842,0.000159147105768218,1.66748220267531e-05
-0.00201739084824269,0.000726652188697588,0.000162754159081775,1.01080155412946e-05
-0.00203351986608028,0.000719344658812562,0.000145464104884635,4.35662209233412e-07
-0.00208814156580815,0.000706076664094726,9.71920828312987e-05,-1.40324299898518e-05
-0.00214773429320659,0.000691878836862972,2.64135359527423e-05,-2.6818419509187e-05
-0.00220592035090449,0.000690424483443766,-4.03129122248925e-05,-2.96778604466318e-05
-0.00224914564187203,0.000701940101500756,-7.56840180031843e-05,-1.98397326058253e-05
-0.00224062217716111,0.000720906300598758,-7.05375595437905e-05,-2.67808058207682e-06
-0.00219800485360651,0.000732398076796417,-3.74156949686193e-05,1.11612489735695e-05
-0.00215911878103726,0.000735092206900847,2.37038930930274e-06,1.2540065711652e-05
-0.00212769521043868,0.000724446816709448,3.49214211396829e-05,3.90619560427057e-07
-0.00210218442095425,0.000707089943116304,5.86989684535551e-05,-1.74096458366742e-05
-0.00208014262200252,0.000692701381009899,7.59104843774069e-05,-3.090110467975e-05
-0.00207104695266765,0.000686311762709127,8.3235728959429e-05,-3.71384983837671e-05
-0.00208466065434579,0.000681686441998866,7.54253415088757e-05,-4.17832198457163e-05
-0.00209989560245845,0.000676405470156996,5.69429050492923e-05,-4.99933441306271e-05
-0.00210832369973205,0.000667154828736474,4.32533744163343e-05,-5.65654332617789e-05
-0.00211043370428286,0.000671947042462053,4.6742287141481e-05,-4.87346417407145e-05
-0.00209392321669598,0.000704848808339167,6.49979705758637e-05,-2.04543924480779e-05
-0.00206952107367045,0.000744772001789331,8.65510114809526e-05,1.89773980578331e-05
-0.00205155623266436,0.000772523926050897,0.000104616204896503,5.3287036836788e-05
-0.0020408631587543,0.000795400190079223,0.000120247078730963,7.40396908713924e-05
-0.00202794087099677,0.000808703947586056,0.000134129704305298,8.37842500447543e-05
-0.00202047836902609,0.000807118463940529,0.000141398308991245,8.68345391539592e-05
-0.00202752363845847,0.000801050710740728,0.000136162569206246,8.31299340628886e-05
-0.00204983961879251,0.000793159055302087,0.000118550116446835,7.24642874403673e-05
-0.00207396758043573,0.000779819535006257,9.62175889039412e-05,5.90613584924926e-05
-0.00209177744935617,0.000762724921865757,7.91540081703049e-05,4.73824711182513e-05
-0.00210300696510118,0.000753212019992591,7.11083951642309e-05,3.55556614412954e-05
-0.00211515439243045,0.000734520002276898,6.45071380255798e-05,1.71038472728638e-05
-0.00213356030783417,0.000703167957256315,4.62709913521368e-05,-1.08098048293243e-05
-0.00217163575718616,0.00067168478200941,1.17891558055395e-05,-4.30132128178341e-05
-0.00221556438300397,0.000644362011215807,-2.80645486627949e-05,-6.96234234982071e-05
-0.00224682106058723,0.000630164183984052,-5.66547098816802e-05,-8.20235139601646e-05
-0.00226166261802093,0.000632989444314804,-6.7978676501476e-05,-7.74621447844238e-05
-0.00226861252001599,0.000650298634189286,-7.19647325668517e-05,-6.16514946744116e-05
-0.00228440775182293,0.000663805047500434,-8.44377398457343e-05,-4.66737677317827e-05
-0.00231556906196887,0.000663387814962138,-0.000112378807207459,-4.19375701523226e-05
-0.00235416903222615,0.000664925614889003,-0.000146924054427011,-4.5402545455477e-05
-0.00237988247751489,0.000660908261591688,-0.000170762324037413,-4.70668356243275e-05
-0.00238806023526551,0.000660073796515095,-0.000176387041817818,-4.29478229757944e-05
-0.00239484324424525,0.000665080586974656,-0.000177312768396599,-4.1188605434396e-05
-0.00241134181090246,0.000655925312991459,-0.000194032361833746,-5.00575756560599e-05
-0.00244457736281022,0.000638592281257646,-0.000224747417094685,-6.36108326791378e-05
-0.00246280446426895,0.000636100806957531,-0.000237119316470187,-6.61319672941587e-05
-0.00242254748478815,0.000653505364269338,-0.000197242686261379,-4.99254468120561e-05
-0.0023304344612619,0.000680577795539963,-0.000104619151466933,-2.16881977104145e-05
-0.00222582830344607,0.000707876724474235,6.25605314676007e-06,9.06265052662201e-06
-0.0021388532006057,0.000740838094999677,9.43193192622812e-05,3.91642411744137e-05
-0.00209244502141744,0.000766766117022402,0.000136717962875615,6.59165140231064e-05
-0.00210181487213462,0.000779807614076591,0.000134298289618844,8.12149906697215e-05
-0.0021328569729839,0.000778627442039695,0.000106520613565567,8.02502922592967e-05
-0.00215294373947047,0.000771951721426947,7.96189852599744e-05,7.12866202037447e-05
-0.00217062247816458,0.000765538261266843,6.67444125650865e-05,6.73874112160183e-05
-0.00218420041705372,0.000767481372802339,5.6302113585578e-05,6.98290213372664e-05
-0.00221084369485639,0.00076625351704678,2.7051504798118e-05,6.77081704345525e-05
-0.00226352228304877,0.000752031847955695,-2.59998697306217e-05,5.32384393759934e-05
-0.00232638134517558,0.000728118463046459,-8.94428513469841e-05,2.94479794946797e-05
-0.00239197030019583,0.000699150603959,-0.00015169234773115,2.69976037561639e-06
-0.00244950070676212,0.00067524913997943,-0.000210410151085369,-2.3967075362021e-05
-0.00249310746747896,0.000651085415547217,-0.000259240990014509,-4.84889268828714e-05
-0.0025211812568415,0.000629019774736152,-0.000285441067659159,-6.85506420246934e-05
-0.00252540126594313,0.000614094770794795,-0.000287356021551863,-8.44276549051377e-05
-0.0025130988665282,0.000604665315429289,-0.000275853425402346,-9.49714445225429e-05
-0.00247292533355506,0.000611317194182706,-0.000246365032559597,-8.93006189518052e-05
-0.00240092291837471,0.000645053425136413,-0.000168883437002442,-5.39800363270872e-05
-0.00227003111064619,0.000704276603715217,-2.94274940227197e-05,4.94486566424506e-06
-0.00209369671903233,0.000759935424324001,0.000128015523089305,5.69810423515947e-05
-0.00199649345853886,0.000774967716632349,0.000229595189195078,7.45316062609817e-05
-0.00198366653821865,0.000762021587015485,0.000247122829628786,5.9955280557486e-05
-0.00200297844427695,0.000739014192760837,0.000225614944828384,3.665413601865e-05
-0.00199111711925966,0.000722122235424652,0.000227362688115332,1.90476042821e-05
-0.00195603382325374,0.000707733673318247,0.000265050367598463,2.93729699929187e-06
-0.00192464601544416,0.000686872046403411,0.00030130605109597,-1.7536532929508e-05
-0.00192180883418374,0.000666391889237874,0.000299612237802556,-3.74213053026119e-05
-0.00195559274885611,0.000658428708221239,0.000257644785676536,-4.8638857786942e-05
-0.00202102673179071,0.000657808819878627,0.000196282917926314,-5.00026498715471e-05
-0.0020875693611842,0.000662088433628585,0.000134797066378395,-4.4455398945765e-05
-0.00213321460087386,0.000674402753973171,8.0977961594419e-05,-3.28059312951693e-05
-0.0021765114174194,0.000695633929707642,3.33404705603943e-05,-1.5008951512574e-05
-0.00223143114038891,0.000717151207754088,-1.41027009766931e-05,6.23472736292473e-06
-0.00227965130088635,0.000735700174313794,-6.34552534401724e-05,2.63619112114566e-05
-0.00231615318752248,0.000751209303808767,-0.000104774805415643,4.07102270122375e-05
-0.00233137621470548,0.000759875819675673,-0.000121432381210798,4.48359121312817e-05
-0.00232472433595206,0.000751638457276729,-0.000108419557472257,3.79159924222977e-05
-0.0022957564768646,0.000738346620699562,-8.15799925295474e-05,2.70224178894983e-05
-0.00227389349185786,0.000738573118363209,-6.40503154651057e-05,2.22084675135042e-05
-0.00228127254732088,0.00074205402982557,-6.61284872162371e-05,2.46106003919819e-05
-0.00229532732339664,0.000740814253140345,-8.15487468629007e-05,2.45907989600149e-05
-0.00231426968063531,0.00073043112340159,-9.83163158084571e-05,1.48164494372693e-05
-0.0023208977175294,0.00072027449132648,-0.000106364577178007,4.54114962793662e-08
-0.00231351866206638,0.000710642380156659,-9.79826578151496e-05,-9.9640738901066e-06
-0.00229026092828875,0.000705492538541111,-7.02479764266648e-05,-1.21456232747525e-05
-0.00224630846061161,0.000712573570762489,-2.88406508818288e-05,-9.50473911718609e-06
-0.00220264209524644,0.000719070477430253,1.62960147900491e-05,-3.32788601136932e-06
-0.00216429246451214,0.000728499932795759,5.97267976045866e-05,6.75818798413174e-06
-0.00212198508512885,0.000740742727562352,9.98403076669138e-05,1.6644540099154e-05
-0.00209186089586382,0.000742793127464838,0.000131218892870624,1.88399230263643e-05
-0.00208036911966617,0.000735390230142488,0.000146994151660707,1.10505770180081e-05
-0.0020792127894886,0.00072621111429996,0.000150183638636541,-6.81643455058525e-07
-0.00207434905018503,0.000717330021699072,0.000152883812642489,-8.59254972086346e-06
-0.00206943762716279,0.000716722054286125,0.000160288745469201,-1.02025342514076e-05
-0.00207041514339537,0.000719416184390556,0.000164366535162782,-8.80107491320324e-06
-0.00207990420340921,0.00071845058908764,0.000157803199204188,-9.9526829605804e-06
-0.00208501828223576,0.000712573570762489,0.000144469427299935,-1.72765724921032e-05
-0.00210795415091241,0.000700998348057172,0.000129695870295461,-2.85046211845027e-05
-0.00213527692170602,0.000694596808826733,0.00011020263651161,-3.58129544920324e-05
-0.00215495837658396,0.000698053878429763,8.27289260246211e-05,-3.30356393480292e-05
-0.00218232883109622,0.000711369556866262,5.39987062263619e-05,-2.20561194157515e-05
-0.00221394313656945,0.000722086472635655,3.16668736015134e-05,-8.9322263960391e-06
-0.00223684324245711,0.000736844583561694,1.25946717110411e-05,4.6498296928217e-06
-0.00224837078144376,0.000756299540775987,-9.31087063658678e-06,2.06233101992003e-05
-0.00227403654301384,0.000769627140142151,-3.11109801618206e-05,3.5791102489598e-05
-0.00229741348608813,0.000774323986430406,-4.86217486985293e-05,4.0973349530579e-05
-0.00231918110365755,0.000766325042624774,-6.87176859596752e-05,3.1065341070926e-05
-0.00234243883743518,0.000746905848199478,-0.000100167895509895,9.54102284237378e-06
-0.00238118185884844,0.000715899510139198,-0.000139076984404442,-1.94671914257469e-05
-0.00242903247052625,0.000680935423429932,-0.000178061977258527,-5.47289664385331e-05
-0.00247230544521245,0.000650012531877311,-0.000220869831171296,-8.69462784729799e-05
-0.00250415816927899,0.000646162071595315,-0.000267319277681585,-9.33111865240283e-05
-0.00253229156328985,0.000679421465362398,-0.000291025615757657,-5.71140177611977e-05
-0.00251534000130534,0.000744426294829028,-0.000260750404567785,7.84505749515567e-06
-0.00242601647532084,0.000805282640772023,-0.000187194502769197,6.48278128305532e-05
-0.00235687508326024,0.00082845692804199,-0.000121576176557837,8.96810571758013e-05
-0.00233927979107379,0.000828218509448678,-9.77580648263046e-05,8.98593429082963e-05
-0.00234080567007099,0.000823664714316411,-9.86182254225222e-05,8.53909397275746e-05
-0.00232596411263729,0.000823450137582429,-9.20447554439978e-05,8.25637553209909e-05
-0.0023079277460532,0.000814557124051876,-7.82505039498848e-05,7.44400809375166e-05
-0.00231674923400576,0.000795900869125179,-8.3137242532228e-05,5.75796284444506e-05
-0.0023504735440298,0.000775039242210343,-0.000119579831765617,3.52286781171123e-05
-0.00239985003470481,0.000749146982976614,-0.000172415460665458,7.89191783495588e-06
-0.00243039145650813,0.000714290184634339,-0.000210585144303501,-2.57859603355716e-05
-0.00242294087546711,0.000680553953680632,-0.000200593650059291,-5.79684995465476e-05
-0.00234426273967402,0.000666904489213496,-0.000122946073586001,-7.36638549407516e-05
-0.00221176160644064,0.000672149698266369,5.14618361464501e-06,-6.87117449809359e-05
-0.0020754338547846,0.000682389776849137,0.000132846412942888,-5.71140610980155e-05
-0.00199036610069073,0.000684011023283662,0.000219976917638943,-5.43165794057517e-05
-0.00194182407509232,0.000681650679209869,0.000271190560528674,-5.89824377149844e-05
-0.00189145814725507,0.000682175200115156,0.000310317053548367,-5.73883467151492e-05
-0.00186544667872469,0.00069675449709621,0.000332876596841936,-4.16568057622438e-05
-0.00189243566348765,0.000720405621552802,0.000309493645921492,-1.73648331805056e-05
-0.00196424734379335,0.00074406866693906,0.000232763438220963,4.30988843480513e-06
-0.00206053269270257,0.000752699420016969,0.000133811019087075,1.55908794754429e-05
-0.00214191687952977,0.000751245066597764,4.62789914932837e-05,1.38549198309223e-05
-0.00221470607606805,0.000737106844014337,-2.55623431808523e-05,4.41726086604318e-07
-0.00228419317508895,0.000717067761246428,-9.4114770166403e-05,-1.94863042438885e-05
-0.00234484686522763,0.000698041957500097,-0.000160351028388478,-3.76664488017508e-05
-0.00238953843054404,0.000690150302061457,-0.000210312731814882,-4.5484639000549e-05
-0.00241227164341638,0.000694489520459743,-0.000231161272363491,-3.81089349627091e-05
-0.00240770592735445,0.000716722054286125,-0.000221781983460169,-1.85716384449324e-05
-0.0023649693945032,0.000735592885946803,-0.000191056001271449,2.42099172326892e-06
-0.00232403292203146,0.000745105787819969,-0.000148502637762779,1.48243144220201e-05
-0.00227199806404102,0.000751709982854723,-9.26256328255356e-05,1.93742668972405e-05
-0.00218814624477304,0.000756728694243949,-1.0863862656933e-05,2.61172386473302e-05
-0.00207381260835007,0.000769698665720145,9.93657781484004e-05,4.09505074615228e-05
-0.00196428310658235,0.00078639988818168,0.000211050324184509,5.77059227760089e-05
-0.00189343702157956,0.000793814706433696,0.000282778386830733,6.6614492666967e-05
-0.00187915574784015,0.000792694139045127,0.000297723654305442,6.61993701817362e-05
-0.00189938556548271,0.000788104581123863,0.000276774113030611,6.2069030540654e-05
-0.00192633878745668,0.000781047390761816,0.000249624421603936,5.76335991511757e-05
-0.00195349466523496,0.000775122688718002,0.00022561922876502,5.21555997808239e-05
-0.0019811512220592,0.000769019172729204,0.000199256532724288,4.59539101218528e-05
-0.00201128733225389,0.000761997745156154,0.000170175841082319,4.09907415738415e-05
-0.0020373941682216,0.0007550120803721,0.000144187536112473,3.63681493408606e-05
-0.00206266653911272,0.000747597262120084,0.000121792496910454,2.85672939148773e-05
-0.00208925021226705,0.000735151811549175,9.90737597562323e-05,1.65402146465955e-05
-0.00211213839722505,0.000718307537931653,7.76114839828621e-05,2.32452167304341e-06
-0.00212696803372908,0.000700736087604528,6.29487329961251e-05,-1.30304711122046e-05
-0.00213899625176169,0.00068619255341247,5.40812404004616e-05,-2.9431019933337e-05
-0.00215575707887155,0.000669872800700235,4.33616790413816e-05,-4.37086773917268e-05
-0.00217403186404895,0.00065968040583613,2.6857497198332e-05,-5.05060708978442e-05
-0.00219171060274307,0.000663590470766453,7.32829131365544e-06,-4.78816831971221e-05
-0.00221778167592178,0.000672352354070685,-1.28944882798326e-05,-3.82333602163048e-05
-0.00224747671171884,0.000683558027956368,-3.41537111435382e-05,-2.4121868010381e-05
-0.00226303352493248,0.000700438064362887,-5.3742734046952e-05,-7.94230543463391e-06
-0.0022783519195528,0.000711548370811246,-6.60015279480306e-05,4.75055394922215e-06
-0.00229067816082705,0.000712990803300786,-7.09186998612587e-05,7.83233481524206e-06
-0.00229688896518284,0.000708103222137882,-7.52651923282444e-05,2.17401554468844e-06
-0.00230479254155115,0.000700223487628906,-8.07703692407942e-05,-4.04318856186384e-06
-0.00230331434627261,0.000698900264436022,-7.83104249230914e-05,-3.79572493029569e-06
-0.00229105963057635,0.000706470054773691,-6.16002174347487e-05,3.97681090162491e-06
-0.00227878107302076,0.000720870537809762,-4.23422964806719e-05,1.74954868060217e-05
-0.00227489484994977,0.000735032602252519,-4.17023282349728e-05,3.38844855555428e-05
-0.00230292095559364,0.000746727034254493,-6.62284733580854e-05,4.71509344366356e-05
-0.00234298720019979,0.000752556368860982,-0.000101158082787912,5.11224804345746e-05
-0.00237511410564864,0.000746619745887503,-0.00013065289448681,4.59758434202759e-05
-0.00239982619284548,0.000735080285971182,-0.000156143536547969,3.54326066028871e-05
-0.0024344564935241,0.000714325947423336,-0.000188524114849821,1.67890131946585e-05
-0.00248214021218659,0.000684034865142993,-0.000230009257798308,-1.70822943736849e-05
-0.00252163425216879,0.000637364425502087,-0.000274096053220585,-6.25800301581901e-05
-0.00257226244045868,0.000594592129861839,-0.0003179561745763,-0.00010208374114104
-0.00261290088968878,0.000578832660843889,-0.000358313080334558,-0.000121857119057774
-0.00262261644736626,0.000574278865711621,-0.000372060269311387,-0.000124537700702604
-0.0025765539751383,0.000582647358336887,-0.000319576798937011,-0.000116954689592303
-0.00244553103718347,0.000604319608468986,-0.000184871826461269,-9.57135348901965e-05
-0.00225930227394714,0.000641727485759704,-7.90154628992744e-06,-5.66463529494154e-05
-0.00211654914120133,0.000690197985780119,0.000139123461283656,-1.14670216238697e-05
-0.00204949391183221,0.000720477147130796,0.000211357609778484,1.96461466455279e-05
-0.0020386101030475,0.000731194062900189,0.000219048222196757,3.02962904639307e-05
-0.0020552517208607,0.00073121790475952,0.000197035143856129,3.00969644725241e-05
-0.00209143174239586,0.000728941007193387,0.000162547091923378,2.57651744244574e-05
-0.00214930785592245,0.000717425389136397,0.000112436396112507,1.39288957642351e-05
-0.00220246328130146,0.000698745292350369,4.99403929238273e-05,-4.90868674968549e-06
-0.00225044502320558,0.000684654753485605,-3.69636956414585e-06,-1.89808864559883e-05
-0.0022817851472965,0.000687217753363714,-2.51159544299878e-05,-1.86900796225483e-05
-0.00225734724148197,0.000699973148105928,-5.28668286310848e-06,-8.18141104823661e-06
-0.00219459546772215,0.000708115143067547,5.08614638719304e-05,2.79221349179051e-06
-0.00211669219235731,0.000718295617001987,0.000129641374694348,1.06879921424965e-05
-0.00203887236350014,0.000727212472391872,0.00020881610803571,1.60654558428195e-05
-0.00197981607793665,0.000728344960710106,0.00026271696622043,1.83048805873542e-05
-0.00196530830653359,0.000730252309456605,0.000276320124476529,2.04664770138674e-05
-0.00198735010548533,0.000744473978547691,0.000251713568725123,3.17095724338174e-05
-0.00203858626118816,0.000768435047175589,0.000198072733390888,5.40635779341561e-05
-0.00211281789021599,0.000785219716144783,0.000122807917276198,7.15076349050326e-05
-0.00219670547227296,0.000780201004755557,3.78266738401146e-05,6.46490395753689e-05
-0.00226606144106754,0.000752079531674357,-3.53110972314642e-05,3.61816306213981e-05
-0.00230278982536732,0.000730204625737943,-7.81702075017156e-05,1.10797626735873e-05
-0.00231863274089293,0.000727212472391872,-8.912298334238e-05,9.17128894952434e-06
-0.00230457796481716,0.000744974657593647,-7.52249052298297e-05,2.5856256838489e-05
-0.00225459350672922,0.000764191196214628,-3.81705758003849e-05,4.21090703941466e-05
-0.0022011996627569,0.000765371368251524,1.64883465229465e-05,4.43383858810822e-05
-0.00216442359473846,0.000752818629313626,6.17205542837316e-05,2.99514988447163e-05
-0.0021551848742476,0.000727939649101475,6.3646074208393e-05,3.08384922506413e-06
-0.00218510640770831,0.000698685687702041,2.05844694145388e-05,-2.53269786108991e-05
-0.00224506868392638,0.000686585944091436,-2.99772262367265e-05,-3.82099657270192e-05
-0.00227628959872065,0.00070375208280993,-5.39703106512905e-05,-2.48573966224846e-05
-0.00226373685978275,0.000732958360490701,-5.78783957616084e-05,5.49293432017453e-06
-0.00227575315688569,0.000755405471051065,-7.34987117054444e-05,2.97107533014306e-05
-0.0023338319262166,0.000763499782294022,-0.000117276953475421,3.23889846301073e-05
-0.00238724961204825,0.000747001215636803,-0.000176068532541568,1.63852494925815e-05
-0.00242625489391416,0.000720858616880096,-0.000223516525528491,-8.06774256866339e-06
-0.00244267001406372,0.000694763701842052,-0.000239153948584371,-3.62558338237009e-05
-0.00243245377734028,0.000665342847427299,-0.00022067468670662,-6.68324537438828e-05
-0.00239863409987891,0.000639569797490227,-0.000189224523315161,-9.38574307459714e-05
-0.00237437500800937,0.000623774565683279,-0.000172089876947081,-0.000107980802919591
-0.00236955895242446,0.00062935356076679,-0.000165335446314755,-0.000102400113332678
-0.00233706249815598,0.000662660638252535,-0.000124750008531174,-7.30317001028771e-05
-0.00222628129877337,0.000716280979888498,-1.56774389508312e-05,-1.84460077253777e-05
-0.00207097542708966,0.000783455418554271,0.00013262609274937,5.17985782503333e-05
-0.00196353208801342,0.000847613862014643,0.000245311947624166,0.000112304732752687
-0.00193964254496351,0.000873136572428737,0.000276462921115219,0.000136934048578191
-0.0019671798924911,0.000855851224413587,0.000245620716613461,0.000121399985163382
-0.00201224100662714,0.000817525435538616,0.000197962993921657,8.38048527484539e-05
-0.00206314337629934,0.000778007553697082,0.000152386318029858,4.23256782919202e-05
-0.00211942208525074,0.00073821549047324,0.000101408297753003,1.68842454463878e-06
-0.00217717898948067,0.000698065799359429,4.30252954130284e-05,-3.63269382770649e-05
-0.00222666276852267,0.000672566930804666,-8.26429635716984e-06,-6.13699089727601e-05
-0.00226030363203905,0.0006733179493736,-3.67807781194534e-05,-6.2832802162869e-05
-0.00226689590614414,0.000692915957743881,-3.7388683933423e-05,-4.35313660027232e-05
-0.00224208845150998,0.000715518040389898,-1.36599396706772e-05,-1.68134907592388e-05
-0.00220470441607859,0.000741398378693961,2.50743819525603e-05,6.08893331887592e-06
-0.00216771377132617,0.000755786940800365,6.46531862749264e-05,1.95459496128481e-05
-0.00214730513973863,0.000753080889766269,9.16962476637983e-05,2.01215379334766e-05
-0.00214039100053257,0.00074262623444952,0.000101165970757728,9.08935859960342e-06
-0.0021411777818905,0.000730848355939886,9.74006409681841e-05,-4.27559534385579e-06
-0.00215392125570305,0.000723099751657233,8.8541889198499e-05,-1.07259640812594e-05
-0.00217452062216524,0.000720608277357118,7.96175406308174e-05,-1.14044339463171e-05
-0.00218148244508996,0.000720441384341799,6.83868856292951e-05,-1.32440461610139e-05
-0.00219841016521514,0.000717151207754088,4.95330532028004e-05,-1.64776684716915e-05
-0.00223200334501286,0.000716686291497129,2.74396243394876e-05,-1.52673792271372e-05
-0.00224081291203576,0.00072275404469693,2.09700097044885e-05,-8.9541019476475e-06
-0.00221446765747474,0.000729692025762321,4.50272178545281e-05,-2.68960529305608e-06
-0.00217599881744378,0.000735688253384128,8.66488032632128e-05,2.95533520517922e-06
-0.00215805781829702,0.000742363973996876,0.00011054562038866,1.21202628350003e-05
-0.0021791101800865,0.000752162978182016,9.31258280698027e-05,2.13879798290422e-05
-0.00222487462907282,0.000751066252652779,4.3757399998859e-05,1.87258137502616e-05
-0.00228430046345594,0.00073043112340159,-9.72131790531485e-06,3.08406152967262e-07
-0.00232571377311431,0.0007097959941504,-4.69471226656882e-05,-2.03549518258499e-05
-0.002340662618915,0.000703418296779293,-6.36445852125498e-05,-2.68572175712838e-05
-0.00234771980927705,0.000712955040511789,-6.64726536225997e-05,-1.71291886813442e-05
-0.00235043778124081,0.000730657621065236,-6.7113350302649e-05,-2.74358945899773e-07
-0.00235571875308268,0.000745594545936259,-7.35513684745919e-05,1.72222735064364e-05
-0.00236771120832629,0.000763607070661012,-8.07243475394778e-05,3.40881817545229e-05
-0.00236583962236879,0.000778174446712401,-7.66933231460629e-05,4.7381730242129e-05
-0.00234739794417607,0.000780856655887166,-6.19208983742691e-05,5.20759022087684e-05
-0.00234106793052363,0.000776219414247239,-5.22703548262884e-05,4.73100250742251e-05
-0.00235240473463564,0.000766623065866415,-5.78954399084349e-05,3.69344097993766e-05
-0.00236052288773792,0.000752306029338004,-7.23039690234941e-05,2.33222317709013e-05
-0.0023820282448547,0.000734937234815194,-9.11197232668476e-05,4.70588338138071e-06
-0.00242059245232299,0.000707757515177579,-0.000126883454867126,-2.09245210949274e-05
-0.00248041167738507,0.000676810781765627,-0.000189165014791492,-5.14826383857822e-05
-0.00255259290651041,0.000651657620171167,-0.00025936505712771,-7.94582256185763e-05
-0.00259403005802811,0.000636112727887197,-0.00030335924389431,-9.34822239941286e-05
-0.00259696260672585,0.000644695797246444,-0.000305770341966301,-8.40896885337629e-05
-0.00256977096615857,0.000677573721264226,-0.000277113677531246,-5.13624304068915e-05
-0.00252177730332478,0.000725889249198988,-0.000231176183062436,-6.04681255963153e-06
-0.00245947852489224,0.000768554256472245,-0.000172191644401795,3.779048067326e-05
-0.00239247097924179,0.000795936631914176,-0.000104231983589088,6.85963519543182e-05
-0.00232901587063169,0.000808191347610435,-3.80661016781297e-05,7.65813704253341e-05
-0.00226809992004036,0.000789368199668419,1.40052039212133e-05,5.56590228928152e-05
-0.00224329246540621,0.000740838094999677,4.08706839198618e-05,1.22920100863532e-05
-0.00224895490699738,0.000697004836619189,3.47776634273376e-05,-3.30709097767328e-05
-0.00227364315233488,0.000672721902890319,6.64331370312443e-06,-6.16096034819462e-05
-0.0022825123240061,0.000660264531389745,-3.69520860405084e-06,-7.14508916358605e-05
-0.00222865356377682,0.00065968040583613,4.52793730498648e-05,-7.15206334284747e-05
-0.00212377322457869,0.000667476693837446,0.00015121589891487,-6.38807885834934e-05
-0.0020108700997156,0.000693452399578833,0.00026368267071348,-4.20136545814466e-05
-0.0019321919639225,0.000726091905003304,0.00033173634935747,-6.950488776586e-06
-0.00192327510853261,0.000756013438464012,0.000344062600538432,2.5021215280097e-05
-0.00194426786567377,0.00077085499589771,0.000320628192870969,3.61325746299208e-05
-0.00197600138044366,0.000760233447565642,0.000283951893271162,2.37421301440384e-05
-0.00200806868124418,0.000731968923328455,0.000246968506326308,-6.32903948298557e-07
-0.00204291355865679,0.000708329719801528,0.000210988702038742,-2.43683664821595e-05
-0.00208997738897666,0.000697779697047454,0.000163487732156736,-4.06291201272146e-05
-0.00215266955808816,0.000691092055505041,9.39172340777611e-05,-4.4573321162055e-05
-0.00221499217838002,0.000701987785219418,2.39260738745758e-05,-2.95961475669433e-05
-0.00224337591191387,0.000746858164480815,2.00036474279142e-06,7.97377008891689e-06
-0.00219026817025353,0.000797414827192713,4.72586155335724e-05,6.01491342787949e-05
-0.00211288941579398,0.000840365936777946,0.000114462196198854,0.000106489307956658
-0.00209010851920298,0.000863909772867547,0.000141444802402597,0.000126765003053145
-0.00210754883930378,0.000854873708181006,0.000121660426788676,0.000116557178535141
-0.00211638224818601,0.000824856807282973,0.000100217941301012,8.83143822724262e-05
-0.00211544049474242,0.000792944478568106,0.000102310302269847,5.62354450054712e-05
-0.00211747897371524,0.000761568591688191,0.000100135879895438,2.41338305670033e-05
-0.00214862836293151,0.000729012532771381,5.86909040595234e-05,-9.85889342723254e-06
-0.0022213102711028,0.000694477599530077,-1.65819715330086e-05,-4.30371398517035e-05
-0.00229815258372739,0.000667262117103464,-9.4065627697055e-05,-6.90227806435725e-05
-0.00235143913933272,0.000655388871156506,-0.000153172630788984,-8.44380305407747e-05
-0.00237829699386936,0.000652015248061135,-0.000186622263854647,-8.62827271102222e-05
-0.00237778439389374,0.000670862237862482,-0.000185342429551919,-6.56969179700252e-05
-0.00233395113551325,0.000723207040024223,-0.000148717037647817,-1.60368009756666e-05
-0.00228644623079575,0.000788986729919119,-0.000103212994537923,5.0318558631736e-05
-0.00226567997131824,0.000840592434441592,-8.79538679468344e-05,0.000103204368596444
-0.00229712738377615,0.000857329419692124,-0.000121885594337415,0.000119030951705869
-0.00236953511056513,0.000838315536875459,-0.000198085827718713,9.93021665631886e-05
-0.00246938481744437,0.0007990837573459,-0.00030109565368038,6.19087786498961e-05
-0.0025697590452289,0.000759112880177073,-0.000407887671405126,2.08943082228667e-05
-0.00263972298143643,0.000718867821625937,-0.00047772382822647,-1.94973866440098e-05
-0.00263170019577147,0.000680816214133275,-0.000472792943461095,-5.65552722955497e-05
-0.00255121007866919,0.000653719941003319,-0.000400754458989048,-8.41436945346054e-05
-0.00246825232912614,0.000639474430052902,-0.00031559137066036,-9.70713220812548e-05
-0.00241003050863925,0.00064222816480566,-0.000261148665807909,-9.64025310862704e-05
-0.00237104906863267,0.00064808134127148,-0.000227600412814205,-8.90074196642511e-05
-0.00231789364325366,0.000652718582911407,-0.000175921955420084,-8.13490881008852e-05
-0.0022293568986271,0.000668132344969055,-8.85957850128636e-05,-7.13843647098185e-05
-0.00211323512275428,0.000688827078868573,2.3630446306121e-05,-4.76215590213014e-05
-0.00198304664987604,0.000730371518753261,0.000151771295959647,-2.28454302332202e-06
-0.00183674108008987,0.000790846394946956,0.000295100032579732,5.2892378798957e-05
-0.00169794569599305,0.000827240993216097,0.000434869544713174,9.11320757143979e-05
-0.00160046825411727,0.000828504611760653,0.000527809499737146,9.56225565442863e-05
-0.00158567438040223,0.000809598017310978,0.000541269630514065,7.46037999217595e-05
-0.00164402733111544,0.000781273888425463,0.000483374540837356,4.69546068465699e-05
-0.00173655758717999,0.000754761740849122,0.000388268468721705,2.00589772205703e-05
-0.00184159289846378,0.000722312970299302,0.000283405750067165,-9.54360749256487e-06
-0.00193833124270029,0.000692379515908928,0.000183701770794471,-3.94023378396108e-05
-0.00201840412726427,0.000677311460811583,0.000105400448850263,-5.79210884945956e-05
-0.00206198704612178,0.000671696702939075,6.29469715981197e-05,-5.87052783115915e-05
-0.00206991446434942,0.000681471865264884,5.02334060594568e-05,-4.804960058335e-05
-0.00208023798943984,0.000697946590062773,4.21094462050695e-05,-3.48002315518375e-05
-0.00210456860688738,0.000710690063875321,2.24808370480029e-05,-2.00024247753251e-05
-0.00212067378286563,0.000727701230508162,1.89790721289988e-06,-4.27459464043734e-07
-0.00212039960148332,0.00075147156426141,1.74428865558854e-06,2.29527736940063e-05
-0.00209952605363882,0.000774157093415087,2.87735882005339e-05,4.39805427943449e-05
-0.00205882799976039,0.000784134911545212,7.00971279367431e-05,5.57781492558396e-05
-0.00202195656430462,0.000778901623422004,0.000104776598486053,5.42900436209595e-05
-0.00201401722514732,0.000767993972777961,0.00011381765536029,4.09162611671453e-05
-0.00204806340027233,0.000752747103735632,8.77934676483659e-05,2.33949563132934e-05
-0.00209988368152879,0.000732994123279698,3.60734007775819e-05,1.05438065627444e-05
-0.00214718593044197,0.000727152867743544,-1.52029187226158e-05,4.30722991292093e-06
-0.00218340171476613,0.00072814230490579,-4.51638205075943e-05,-3.09889465650464e-08
-0.00220558656487385,0.000717115444965091,-5.80845706040223e-05,-5.23323475827787e-06
-0.00221579088066762,0.000711751026615562,-7.40334023957362e-05,-8.45183955258463e-06
-0.0022452355769417,0.000715541882249229,-0.000102061704054011,-7.8763790355906e-06
-0.00228461040762725,0.000715529961319563,-0.000132075832121515,-7.54704468625314e-06
-0.00230873836927047,0.000708055538419219,-0.000151980952590359,-1.12311197359867e-05
-0.00231391205274534,0.000703656715372605,-0.000161160723973873,-1.4927622916816e-05
-0.00232241167559693,0.000710713905734653,-0.000164779529765019,-1.06406468379883e-05
-0.00233225836350074,0.000722217602861977,-0.000166600788586783,2.70554908636219e-06
-0.00234112753517196,0.000731325193126511,-0.000173091085173957,1.51672610525631e-05
-0.00236063017610491,0.000730478807120252,-0.000193216967553033,1.33230293296987e-05
-0.00239434256519929,0.000711512608022249,-0.000223170915513413,-7.89393086319332e-06
-0.00241595521068306,0.000676727335257967,-0.000237415541541424,-3.89451712072448e-05
-0.00239089741652592,0.00065211061549846,-0.000207217805486185,-6.08285716517877e-05
-0.00230721249027327,0.00065921548957917,-0.000128230351342548,-5.93902616724079e-05
-0.00220721973223804,0.000677621404982889,-2.23202832081941e-05,-3.65561046009066e-05
-0.0021100045508149,0.00070614818967272,8.55948835861544e-05,-6.47968562730217e-06
-0.00201098930901225,0.000733411355817995,0.00018173194540492,1.88500348226722e-05
-0.00193961870310418,0.000751209303808767,0.000254096476145125,3.70588267710135e-05
-0.00191520463914899,0.000761663959125516,0.000284316362724993,4.9236382886541e-05
-0.00194350492617517,0.000764644191541922,0.000262283090369026,5.28742395606383e-05
-0.00200089228158547,0.000758302256959811,0.000205193810816432,4.525035979485e-05
-0.00205645573475693,0.000742936178620826,0.000148744620721537,3.07092608736573e-05
-0.00209567559335682,0.000731194062900189,0.000114817912995928,1.97425008512947e-05
-0.00212236655487815,0.000731062932673867,9.51268714356795e-05,2.03577352062937e-05
-0.00214424146081456,0.000743532225104107,7.1124049506677e-05,3.14416050805857e-05
-0.00217286361294172,0.000755417391980731,4.15807377942611e-05,4.37883398195803e-05
-0.0022008539557966,0.000758385703467471,2.00384372897686e-05,4.77110874997974e-05
-0.00221624387599491,0.000752198740971013,8.81523776821517e-06,4.20484866017917e-05
-0.00223327888448709,0.000747776076065068,-1.01913755434991e-05,3.58912128812258e-05
-0.00227476371972345,0.000751113936371442,-5.39387277953658e-05,3.85126778140278e-05
-0.00234612240470185,0.000756537959369299,-0.000116981726222756,4.76789433879989e-05
-0.00240745558783147,0.0007629871823184,-0.000177650667486035,5.17127805671557e-05
-0.00244398131632693,0.000756430671002309,-0.00021712659095005,4.26272668970522e-05
-0.0024531485112398,0.000732433839585414,-0.000225596133985066,2.16494461692869e-05
-0.002431821968068,0.000702631515421362,-0.000199657459434519,-8.02298388721236e-06
-0.00237894072407131,0.000667512456626442,-0.000147264829812703,-4.55319058108859e-05
-0.00232251896396392,0.000627100505059988,-9.0871905934288e-05,-8.6758881115011e-05
-0.00227906717533274,0.000588738953396019,-5.10147162917212e-05,-0.000123348145726484
-0.00225890888326817,0.000560176405917192,-2.59271049562488e-05,-0.000152438593045418
-0.00223524583788191,0.000535678895454341,1.4824553222081e-06,-0.000178366146678414
-0.00218931449588028,0.000518870384625815,3.72738816874504e-05,-0.00019712278658878
-0.00215953601357555,0.000524747402950966,7.08685787457435e-05,-0.000188720353956196
-0.0021408320749302,0.000575852428427483,9.66027726594659e-05,-0.000138218566780155
-0.00210497391849601,0.000657439271058993,0.000123099997889551,-6.00845552411804e-05
-0.00207787764536605,0.000728011174679468,0.000152360663600936,1.17110483957812e-05
-0.00206816208768857,0.000773048446956184,0.000163889168031951,5.68244774355893e-05
-0.00209732068165068,0.000796723413272107,0.000133315672494899,7.97757101211968e-05
-0.0021708251339689,0.000807845640650132,5.96926395876668e-05,8.95558477426338e-05
-0.00226490511088998,0.000804054785016464,-3.61584103098104e-05,8.42257451369125e-05
-0.00236285938995238,0.000779187725733979,-0.000132972728020641,6.14109924882437e-05
-0.00244836821844388,0.00074954037365558,-0.000217358855463652,3.05197334389471e-05
-0.00250648275056379,0.000725126309700388,-0.000278463873250193,4.18688915414281e-06
-0.00253863349787196,0.000707316440779951,-0.000309995421942093,-1.48758534076171e-05
-0.00254751459047285,0.00068945888814085,-0.00031585982485369,-2.93723828976762e-05
-0.00252776161001692,0.000686180632482805,-0.000300368791779527,-3.57039800525253e-05
-0.00248357072374646,0.000696551841291895,-0.000253843791884669,-2.68318979084066e-05
-0.00239514126748689,0.000718331379790984,-0.000163350139668841,-4.4105780237031e-06
-0.0022707582873558,0.000742745443746176,-4.16579735121532e-05,2.08962157019188e-05
-0.00216189635764935,0.000763595149731347,6.87564390769742e-05,4.14164217469348e-05
-0.00210256589070355,0.000785338925441439,0.000130678481673858,5.82216253077565e-05
-0.00208773625419952,0.000796413469100801,0.000145003432732642,7.41851500423712e-05
-0.00209032309593696,0.000809299994069337,0.00014236634564203,8.69286894123062e-05
-0.00208748591467654,0.000817906905287916,0.000148603264185529,9.10382227677299e-05
-0.00207014096201306,0.000809288073139672,0.000166171802268991,8.44503026409459e-05
-0.00205446493950277,0.000793635892488712,0.00018375066294698,7.07110152637918e-05
-0.00204814684677999,0.000780952023324491,0.000191495871116252,5.55564632379643e-05
-0.00205664646963158,0.000767314479787021,0.00018453711854445,4.14207709703634e-05
-0.00208250296607631,0.000749516531796249,0.000161437807709614,2.52747382462729e-05
-0.00211857569924448,0.000727605863070837,0.000127831218554823,3.35259959034278e-06
-0.00214778197692525,0.000703978580473577,9.93729029732504e-05,-2.14972880055688e-05
-0.00215694917183811,0.000685000460445908,9.29672620279691e-05,-3.96110446742613e-05
-0.002143085130637,0.000680673162977288,0.000111351126632125,-4.32664080773083e-05
-0.00211491597383714,0.00069098476713805,0.000139630731482383,-3.38682207820654e-05
-0.00209807170021961,0.000703692478161602,0.000160289149643432,-1.94287936296895e-05
-0.00209164631912984,0.00071681742172345,0.000169101533923141,-7.54234319193714e-06
-0.00209109795636522,0.000721490426152374,0.000172938257325261,-2.18538210720869e-06
-0.00209155095169252,0.000717842621674694,0.000175781074863253,-3.8700025746027e-06
-0.00209434044923427,0.000713729900940055,0.000174238110081379,-9.7160805416474e-06
-0.00210640443005588,0.00070739988728761,0.000165963060871266,-1.5245940649847e-05
-0.00212253344789347,0.000702726882858687,0.000153875320081013,-1.84883257587366e-05
-0.0021385432564344,0.000699949306246597,0.000139729406911737,-2.04323966351007e-05
-0.00215796245085969,0.000702726882858687,0.000121455769621586,-1.99235540437771e-05
-0.00218415273333506,0.000708019775630222,0.000100843611471493,-1.17860714340903e-05
-0.00220204604876316,0.000724947495755404,8.59212859976537e-05,6.47502232797296e-06
-0.00220689786713707,0.00074983839689722,7.91183570109582e-05,2.87975695497307e-05
-0.00222382558726225,0.000763893172972987,6.91497971647216e-05,4.54032933444484e-05
-0.00225323452074733,0.000769591377353154,4.23383426024559e-05,5.20266608248755e-05
-0.00229538692804497,0.000770008609891451,-2.17638139497231e-06,5.11393059886428e-05
-0.00235493197172475,0.000762522266061441,-5.58272764457995e-05,4.58560954857131e-05
-0.00241560950372276,0.000753259703711254,-0.000115250720794914,3.6337662667904e-05
-0.00248631253756955,0.000738370462558893,-0.000185283046058912,2.13120895235593e-05
-0.00257258430555965,0.00071613792873251,-0.000269466390911204,5.22476833172228e-07
-0.00266619936622377,0.000691902678722303,-0.000363786086599067,-2.26650101906921e-05
-0.00276067273382382,0.000677716772420214,-0.000454507773619011,-3.86214669182551e-05
-0.00281964557287965,0.000680577795539963,-0.000512239728115387,-3.46767954239031e-05
-0.0027977825878729,0.000706100505954057,-0.000494731581345667,-6.30586502930379e-06
-0.00268114821202446,0.000749373480640261,-0.000376740347715837,3.48636344801406e-05
-0.00249897256487444,0.000782644795337009,-0.000187187401806287,6.69919696188308e-05
-0.00231002582967435,0.000783014344156643,-5.63990881352655e-06,7.15873951359811e-05
-0.00220661176482509,0.000754475638537147,9.18346633653451e-05,4.13406629927981e-05
-0.00222349180123161,0.000694489520459743,8.55525596863136e-05,-1.91155836694238e-05
-0.0022954822954823,0.000618934668239037,1.19988460644997e-05,-9.41561345059658e-05
-0.00237233652903655,0.000549948248264089,-7.85625823726315e-05,-0.000162198443604342
-0.00245268359498284,0.000504899055057708,-0.000153882243634856,-0.000206653786733716
-0.0024995090067094,0.000491476088254219,-0.000195274933886254,-0.000221570481891498
-0.00247706189614903,0.000509047538581344,-0.000182702970853009,-0.000204458879223793
-0.00239046826305796,0.000558853182724308,-0.000103483881961979,-0.000151525837500597
-0.00227118744082376,0.00064173940668937,2.18151163253557e-05,-7.00103249087051e-05
-0.00215288413482214,0.00072525743992671,0.000136541448069938,1.07956723295828e-05
-0.00209682000260472,0.000768530414612914,0.000187338210220789,5.76703703487374e-05
-0.00210672629515685,0.000778007553697082,0.000169358894112372,6.62771033398481e-05
-0.00215276492552548,0.000776755856082192,0.000124077983292285,6.36097825236035e-05
-0.00218930257495061,0.000785005139410802,9.05114411757582e-05,7.31192526588377e-05
-0.00219774259315387,0.000802671957175252,6.90668337752976e-05,8.91901966362953e-05
-0.00222089303856451,0.000803959417579139,3.73923725480675e-05,9.23041920054996e-05
-0.0022813321519692,0.000788378762506173,-1.36314558982929e-05,7.63364663004716e-05
-0.00233342661460797,0.000764071986917972,-7.40593139211895e-05,4.93910524469324e-05
-0.0023813368309341,0.000730800672221224,-0.000134182928087289,1.78938605284286e-05
-0.00243697180968355,0.000696218055261258,-0.000189191095847169,-1.48062879610259e-05
-0.0024725319428761,0.000675284902768427,-0.000226849935108742,-3.92745320097931e-05
-0.00247304454285172,0.000669705907684917,-0.000230745588518007,-4.59172498005341e-05
-0.00243040337743779,0.000669932405348563,-0.000199561850551616,-4.01047185818734e-05
-0.00237287297087151,0.000678968470035104,-0.000146031415193503,-3.64860202345839e-05
-0.00230364813230325,0.00067946914908106,-7.19018210872443e-05,-3.49339198792988e-05
-0.00218487991004466,0.000697755855188123,3.70674916232989e-05,-1.59859886244131e-05
-0.00203055155459354,0.00074599985754489,0.000179855388092865,3.21465574301314e-05
-0.00189626228191032,0.000805711794239985,0.000319388388026994,9.19004865515315e-05
-0.00180008422136809,0.000847125103898352,0.000408888484010353,0.000130948040122609
-0.00177366744122907,0.000847113182968687,0.000431764445654262,0.000133214948145448
-0.00179189454268781,0.000821507026046933,0.000404777257637069,0.000108327593282243
-0.00184302341002365,0.000792038487913518,0.00035213674540902,7.56801475172664e-05
-0.00190469037918391,0.00076394085669165,0.000291226717899618,4.81537750533358e-05
-0.00195388805591393,0.000741517587990617,0.000235583898191446,2.90940504125886e-05
-0.00198696863573603,0.000731945081469123,0.000192484326220166,1.57635054602769e-05
-0.00202654612222589,0.000719535393687212,0.000156604036982987,3.37489686881526e-06
-0.00206382286929028,0.000704336208363545,0.000118904104677792,-9.52093128370493e-06
-0.00209063304010827,0.000696814101744539,8.18856757823111e-05,-1.84873642475296e-05
-0.00211448682036917,0.000696206134331592,5.52804506386866e-05,-1.92592733703493e-05
-0.00213294041949155,0.000700092357402584,3.88977529083193e-05,-1.54858515386003e-05
-0.00214554084214812,0.000699925464387266,2.29907434940593e-05,-1.54170024192762e-05
-0.00215908301824826,0.000694191497218102,5.00740475006243e-06,-2.04296094562361e-05
-0.00216759456202951,0.00069357160887549,-8.06937834203118e-06,-2.19756797151252e-05
-0.00217666638950505,0.000705039543213817,-1.51567988109437e-05,-1.18603883243573e-05
-0.00218592895185524,0.00072247986331462,-2.4384471827327e-05,8.38062099017356e-06
-0.00219353450498191,0.000745260759905622,-3.80450805184256e-05,3.01466128246425e-05
-0.00220015062094632,0.00076279644744375,-4.8970136110457e-05,4.56570053380292e-05
-0.00221353782496082,0.000765824363578818,-5.71775152783529e-05,5.04533475809554e-05
-0.00223301662403444,0.00075694327097793,-7.56981314806721e-05,4.20304248521921e-05
-0.0022582055484179,0.000736939950999019,-0.000112489078267399,2.06472382311791e-05
-0.00230985893665903,0.000706839603593326,-0.000160891980433392,-9.78645976462904e-06
-0.00237303986388682,0.000670838396003151,-0.000217336896475693,-4.4886322119883e-05
-0.00243970170257698,0.000633907355899057,-0.000291167787192015,-8.22387117316848e-05
-0.0025211812568415,0.000599265134290763,-0.000377270981619549,-0.000116924370989625
-0.00257955804941404,0.000581193004917681,-0.000428859023009014,-0.000136224469242346
-0.00253496185153495,0.000591719185812425,-0.000384201168603203,-0.000125098196117763
-0.00237522139401563,0.000635421313966591,-0.00022914764861698,-8.0336082221626e-05
-0.00216798795270848,0.000700986427127506,-2.12698777308674e-05,-1.74839861928947e-05
-0.00199383509122342,0.000755977675675015,0.000154993992072375,3.83369886705705e-05
-0.00189881336085876,0.000785481976597427,0.00025154420463472,6.8541591286027e-05
-0.00187422048295858,0.00078784232067122,0.00027453311750474,6.96297411241372e-05
-0.00189306747275993,0.000769150302955526,0.000251921000654863,4.99467129032502e-05
-0.00195708286506431,0.00073840622534789,0.000196451138871693,2.05745700854412e-05
-0.00204889786534893,0.000706863445452657,0.000103445466171759,-1.18225450432797e-05
-0.00216835750152811,0.00067563060972873,-2.21601811687684e-05,-4.52444148400477e-05
-0.00230382694624823,0.000641381778799401,-0.000149470761749181,-7.66429128026719e-05
-0.00239659562090609,0.000621938742514774,-0.00024200347014041,-9.82400338429646e-05
-0.00244225278152542,0.000619185007762015,-0.000290254638354276,-0.000102624358581897
-0.002466046957138,0.000628030337573906,-0.000310272692296072,-9.10494047124635e-05
-0.00246438994791448,0.000648748913332755,-0.000309009696261339,-7.2638395942702e-05
-0.00242965235886886,0.000667822400797748,-0.000269942992120291,-5.43323695011769e-05
-0.00234117521889062,0.000685071986023902,-0.000183755555827355,-3.55839750361014e-05
-0.00223457826582064,0.000708758873269491,-7.50545804772439e-05,-1.42365881959679e-05
-0.00214146388420247,0.000729906602496302,2.21632380300942e-05,8.13640484922955e-06
-0.00205832732071443,0.000752854392102622,0.000104782254742072,3.08660447546912e-05
-0.00197178137134203,0.000782918976719318,0.000191970899050933,5.84212206976729e-05
-0.00188623678006153,0.000814569044981542,0.000281274311213158,9.21223561025763e-05
-0.00182851563862059,0.000841844132056483,0.000340821845856496,0.000120056218158478
-0.00182033788086998,0.000850307992119073,0.000349287521964759,0.000124628260282825
-0.0018527866514198,0.000825619746781572,0.000318969964820302,0.000102303612149714
-0.00190364133737334,0.000791668939093884,0.000271260714408246,6.89953234589087e-05
-0.00196453344610533,0.000766885326319058,0.000212745124321469,4.28289752538342e-05
-0.00202938330348631,0.000752484843282988,0.0001474798169847,2.73100120542945e-05
-0.00209074032847526,0.000738036676528256,8.9596907051795e-05,1.49158722443488e-05
-0.00213980687497895,0.000723886533015164,4.46120841972704e-05,9.09024643923252e-07
-0.00218857539824101,0.000711834473123221,-4.45823274962629e-06,-1.30152341013783e-05
-0.00225745452984896,0.000698876422576691,-7.10452334462153e-05,-2.49933684475539e-05
-0.00232701315444786,0.000687468092886692,-0.000137103521592096,-3.48236393899445e-05
-0.00236464752940223,0.000684249441876974,-0.000171593351657672,-3.95513236079457e-05
-0.00235911621803738,0.000689041655602554,-0.000166937125965764,-3.40609624590218e-05
-0.00233502401918316,0.000703704399091268,-0.000137089372244975,-1.85920194569013e-05
-0.00228847278883891,0.000721049351754746,-9.05897716156583e-05,-1.20048720850346e-06
-0.00223308814961244,0.000732195420992101,-3.15844403418448e-05,1.05159600757284e-05
-0.00218544019373895,0.000739395662510136,1.91145013396757e-05,1.76040506078703e-05
-0.00216820252944246,0.000746738955184159,3.59851414523907e-05,2.65115740034419e-05
-0.00218131555207464,0.000759410903418714,2.72454251245967e-05,3.89517179558364e-05
-0.00217746509179265,0.000768625782050239,3.43197705461312e-05,4.82750221398076e-05
-0.00213106883353405,0.000764453456667272,8.0831731667813e-05,4.64958718758463e-05
-0.00207226288749354,0.000752067610744691,0.000141383946143442,3.29064642187409e-05
-0.00204589379107319,0.000732791467475382,0.000172959403546308,1.46976686019712e-05
-0.00205823195327711,0.000716555161270807,0.000161172332500893,4.20569443887851e-07
-0.00209549677941184,0.000711393398725593,0.000123237483935428,-5.77402663394306e-06
-0.0021449209538055,0.000710904640609303,8.03814625862842e-05,-4.66120632988227e-06
-0.00218142284044163,0.000714647812524307,4.37078710594119e-05,3.01882715398607e-07
-0.00220626605786479,0.000719904942506846,1.85691435694743e-05,4.84246684413984e-06
-0.00222322954077897,0.000718843979766606,6.65989810613135e-06,6.0093345930645e-06
-0.00222584022437574,0.000717890305393356,4.65380019023935e-06,4.83467559094626e-06
-0.00222202552688274,0.000717175049613419,8.53355741435355e-06,5.82910368176841e-06
-0.00221650613644756,0.00072411303067881,1.62603751803249e-05,1.17132406425795e-05
-0.00221331132729717,0.000729835076918308,2.21136881021822e-05,1.95579764630142e-05
-0.00221875919215436,0.000733137174435685,1.62007598851792e-05,2.44568991675996e-05
-0.0022403122329898,0.000736630006827712,-3.77403201331329e-06,2.58686354375814e-05
-0.002264654771367,0.000736069723133428,-2.77725651061397e-05,2.68054688095873e-05
-0.00228621973313211,0.000733327909310335,-4.73364237112047e-05,2.70628585985046e-05
-0.0023067833368053,0.000730168862948946,-6.61410141493241e-05,2.18271736080485e-05
-0.00232710852188519,0.000717139286824422,-8.89268632248394e-05,8.79926383101621e-06
-0.00234731449766841,0.000699293655114988,-0.000109031963241829,-6.97450284019341e-06
-0.00236411108756727,0.000687038939418729,-0.000117946321261497,-1.81355056310907e-05
-0.00235910429710771,0.000684845488360255,-0.000120633247150841,-2.2478108044744e-05
-0.0023690940361675,0.000683593790745365,-0.000129585081553574,-2.3081810307718e-05
-0.00239260210946811,0.00068072084669595,-0.000148072894523133,-2.37718879242503e-05
-0.00241239085271304,0.000677597563123558,-0.000170757542402467,-2.78566605959391e-05
-0.00244034543277892,0.000667750875219755,-0.000197968294908787,-3.923909389396e-05
-0.00247800364959262,0.000645172634433069,-0.000237933903421673,-5.99335220994098e-05
-0.00253695264678911,0.000619542635651984,-0.000294796389083528,-8.57933932935336e-05
-0.00260651127138801,0.000598704850596479,-0.000361331174294354,-0.000107798089950644
-0.00266072765950725,0.000587809120882101,-0.00041984259384001,-0.000118745968744597
-0.0026799203562689,0.000588619744099363,-0.000442371320714686,-0.000117142654884479
-0.00264285818593849,0.000602984464346437,-0.000397705190777005,-0.000104643114698959
-0.00252019181967925,0.000625669993500113,-0.000275221070063816,-8.25257596094811e-05
-0.002340662618915,0.000653862992159306,-0.000103957480847449,-5.22437096477535e-05
-0.00217520011515618,0.000692057650807956,6.43154031445286e-05,-1.76583163851445e-05
-0.00205234301402229,0.000726389928244944,0.000195010357327129,1.55944469738348e-05
-0.00195432913031156,0.000750887438707795,0.000286600143934239,4.3051180583123e-05
-0.00188703548234913,0.000773310707408828,0.000348969087669761,6.26549255968374e-05
-0.00186346780440019,0.000787055539313289,0.000381163780727048,7.3324353972592e-05
-0.00186705600422955,0.000786471413759673,0.000376962138407289,7.43363049121553e-05
-0.0018986941515621,0.000779426144327291,0.000341038717578713,6.76141270910482e-05
-0.00195207607460475,0.000773894832962443,0.000289181622042763,5.90219426880119e-05
-0.00200665009061397,0.000771451042380991,0.000236356107945195,5.37533247023079e-05
-0.00205428612555779,0.000764167354355297,0.000190531046299475,4.94191440831011e-05
-0.00208861840299478,0.000753986880420856,0.000154246522626131,3.71444083470134e-05
-0.0021160365412257,0.00073198084425812,0.0001261993464299,1.233864686495e-05
-0.00214260829345037,0.00070222620381273,0.000103022742514659,-1.81290758568623e-05
-0.00216379178546618,0.000677418749178573,8.33836814343005e-05,-4.29036206786463e-05
-0.0021761299476701,0.000663471261469797,6.92286689176088e-05,-5.76264078244808e-05
-0.00218439115192837,0.000658488312869567,6.18981321919138e-05,-6.43418108269874e-05
-0.00218801511454672,0.000664675275366025,6.0374019162432e-05,-6.18085467740327e-05
-0.00218616737044855,0.00067878965609012,6.4739963175999e-05,-4.50346892453708e-05
-0.00217306626874603,0.000707256836131622,7.67953449556476e-05,-1.6649052419053e-05
-0.00215562594864523,0.000739193006705821,9.44146447876442e-05,9.28519677650239e-06
-0.00214388383292459,0.000749743029459895,0.000109291805612715,2.07247751604117e-05
-0.0021415234888508,0.000746834322621484,0.000113812751584382,2.05288742776371e-05
-0.00214713824672331,0.000751090094512111,0.000107621632355564,2.05004788575131e-05
-0.0021597982740282,0.000758624122060783,9.51342476013223e-05,2.61755757548408e-05
-0.00217808498013526,0.000764405772948609,7.99559957038688e-05,3.35897579867754e-05
-0.00219594253277436,0.000770700023812057,6.45312442110162e-05,3.86114354333209e-05
-0.00220779193686199,0.000774848507335693,5.16330649271942e-05,4.22339617597081e-05
-0.00221861614099837,0.000780570553575191,4.1845809095252e-05,4.62158125131855e-05
-0.00223066820089031,0.000784289883630865,3.11901506846319e-05,4.92455485087888e-05
-0.00225070728365822,0.000782406376743697,1.47831823117295e-05,4.91159977191241e-05
-0.00227290405469561,0.000779461907116288,-7.84461509911516e-06,4.49580076023355e-05
-0.00229555382106029,0.000773704098087793,-3.34137930393652e-05,3.63611280810914e-05
-0.00232665552655789,0.000759077117388077,-5.993458505097e-05,2.38490004012461e-05
-0.002359700343591,0.00074570183430325,-8.86790851833141e-05,1.12347004563824e-05
-0.00238564028654339,0.00074052815082837,-0.000120676289313324,3.90428164146701e-06
-0.00241678967575965,0.000739753290400105,-0.000151742862543685,2.87842256313942e-06
-0.002443266060547,0.00073802475559859,-0.00017180138374162,3.06198509891187e-06
-0.00244330182333599,0.000734806104588872,-0.000172098375729006,-8.4516917353033e-07
-0.00241906657332579,0.000727558179352175,-0.000155546205807416,-8.41460847418986e-06
-0.0024044991972744,0.000720429463412134,-0.000136028094495545,-1.47514870331061e-05
-0.00239335312803704,0.000718629403032625,-0.000121153811680246,-1.61451815594326e-05
-0.0023649693945032,0.000721478505222708,-9.87397217724083e-05,-1.30638028404075e-05
-0.00231596245264783,0.000725972695706647,-5.15303885675223e-05,-8.31149298445046e-06
-0.00225459350672922,0.000728976769982384,1.26775294829494e-05,-3.34742386104911e-06
-0.00220974696932715,0.000736808820772697,5.84863138353277e-05,3.21666542857496e-06
-0.00220184339295884,0.000745987936615225,5.9206550905851e-05,1.3060748032364e-05
-0.00223667634944179,0.000753891512983531,2.60250084743782e-05,2.43149234138213e-05
-0.00227358354768655,0.00076230768932746,-1.13093841190975e-05,3.20138642241802e-05
-0.00230580582057272,0.000764679954330918,-4.55876427646425e-05,3.31327366373664e-05
-0.00235350146016487,0.00075740818723489,-9.63913910980533e-05,2.88108420918271e-05
-0.00242943778213488,0.000744962736663981,-0.000173639243729782,1.99583920088104e-05
-0.0025097371643625,0.000732255025640429,-0.000256848593439179,3.85021465760758e-06
-0.00257629171468566,0.00070614818967272,-0.000321422195862408,-2.13034247362046e-05
-0.00261912361497424,0.000672042409899378,-0.000371841069579707,-5.0837178685281e-05
-0.00267695204478216,0.000644862690261763,-0.000431278222945045,-7.7377193503618e-05
-0.00274679677169304,0.000625562705133122,-0.000500363661642571,-9.84316046447703e-05
-0.00278322713275117,0.000608313119906969,-0.000540247209168032,-0.000114553996732707
-0.0027384878837161,0.000597071683232288,-0.000501053254788402,-0.000120802450480621
-0.00259796396481776,0.000610458887246781,-0.000362060435773525,-0.000107623162665113
-0.0023816467751054,0.000646925011093915,-0.000146059514364581,-7.29156067847676e-05
-0.00213947308894831,0.000690126460202125,9.40449383951506e-05,-2.74325834287986e-05
-0.00192549240145042,0.000728559537444087,0.000298774252849287,1.52736848593062e-05
-0.00180037032368006,0.000762569949780103,0.000425766325565953,4.9654655726094e-05
-0.00175983916281695,0.00079323058088008,0.000467852048518635,7.60872157961658e-05
-0.00176569233928277,0.000804972696600717,0.000453180427612984,9.42341749746106e-05
-0.00179249058917109,0.000812721300883371,0.000421590941478207,0.000104194032283908
-0.00182533275039987,0.000820469905166024,0.000394724101744042,0.000109414905791698
-0.0018474103121406,0.000821268607453621,0.000366993211143229,0.000111043363169049
-0.001884722821994,0.000808811235953047,0.000323265718071745,0.000102270193178389
-0.00194766533062847,0.000781583832596769,0.000261375078149746,7.6523191196466e-05
-0.00201296818333675,0.00074752573654209,0.000195991239335665,4.02582389959284e-05
-0.00206165326009114,0.000713682217221392,0.000143866573223241,8.85452377614387e-06
-0.00209202778887914,0.000691306632239022,0.000110139447999667,-1.13480303530843e-05
-0.00211023104847855,0.00067476038186314,9.05906388321211e-05,-2.8353083037204e-05
-0.00211921942944642,0.00065306428987171,8.35048984186517e-05,-4.89819815531923e-05
-0.00210740578814779,0.000634026565195713,9.2953725640328e-05,-6.67080318441335e-05
-0.00207782996164739,0.000630211867702715,0.000118082972669641,-7.09311324039886e-05
-0.00205239069774095,0.000637579002236068,0.000144577888489767,-6.18618560911325e-05
-0.00204608452594784,0.000648796597051418,0.000154010670688212,-4.88919948832207e-05
-0.00205377352558217,0.000660920182521354,0.000141435596823297,-3.86648021119796e-05
-0.00207792532908471,0.000665652791598606,0.000117314291204569,-3.24403066266836e-05
-0.00210490239291801,0.000664901773029671,9.07861602221216e-05,-3.18848943689385e-05
-0.00213887704246503,0.000657331982692002,5.83040338658639e-05,-3.84477478503072e-05
-0.00218496335655232,0.000649106541222724,1.31609693645079e-05,-4.76056579144072e-05
-0.00223385108911104,0.000646626987852275,-3.98698538565314e-05,-5.1665146772111e-05
-0.00228148712405486,0.000645303764659391,-8.60851257864149e-05,-4.85075994192869e-05
-0.00231745256885603,0.000652456322458763,-0.000113710952645845,-4.05065582805999e-05
-0.00231630815960813,0.000673484842388919,-0.000119554394992577,-2.57777228967772e-05
-0.00230201496493906,0.000694596808826733,-0.000105902525615845,-5.43887272239401e-07
-0.00228433622624494,0.000719654602983868,-7.97704660374739e-05,2.80731699512054e-05
-0.00225507034391584,0.000738680406730199,-5.32879756503863e-05,4.29001154805436e-05
-0.00224074138645776,0.000733780904637629,-3.63828575159883e-05,3.65271333903614e-05
-0.002230429782297,0.000716638607778466,-2.88277294801774e-05,2.17580546631338e-05
-0.00223270667986314,0.000707054180327307,-2.60781123816354e-05,1.52116964898019e-05
-0.00224276794450092,0.000714898152047286,-3.09990748394851e-05,1.81267495439002e-05
-0.00225670351128003,0.000720214886678152,-4.96037875548679e-05,2.20521651706363e-05
-0.0022817136217185,0.000720572514568121,-7.48185897261437e-05,2.66237454269332e-05
-0.00230367197416258,0.000733721299989301,-8.77512144444606e-05,3.96780642813448e-05
-0.00229923738832697,0.000760686442892935,-8.25656020434322e-05,6.20372355230218e-05
-0.00229140533753665,0.000782406376743697,-8.11230986100082e-05,8.32479400577861e-05
