BCL,BCC,BCL_Filtered,BCC_Filtered
-,-,-,-
-0.00209566367242716,0.00219489349096379,4.76825086218857e-20,-4.43757081215584e-21
-0.00212895882898324,0.00219385637008288,-1.31300969412248e-05,-2.88371611225097e-06
-0.00214123738653883,0.00219237817480434,-2.51062616320236e-05,-1.56378316285409e-06
-0.00215065492097467,0.0021950603839791,-3.33932831013223e-05,3.96576954287662e-06
-0.00218585742627725,0.00220555080208485,-4.75121058170087e-05,8.73881363667441e-06
-0.00224577201877666,0.00220057977441429,-8.71589299018726e-05,7.3555055570867e-06
-0.00230436338808318,0.00219137681671243,-0.000150690724857262,-4.76269635483861e-07
-0.00236206068766479,0.00218248380318187,-0.00020337303929336,-1.05643170916493e-05
-0.00239974274633782,0.00217363847336998,-0.000217799447574095,-1.95451729212885e-05
-0.00240159049043599,0.00216703427833523,-0.000208891174055473,-2.57830194903673e-05
-0.00239635720231278,0.0021654845574787,-0.00020357964594377,-2.52121030928667e-05
-0.00239317431409206,0.00217887176149319,-0.000193432990501201,-1.2500570335463e-05
-0.00236581578050946,0.00220367921612735,-0.000152624085388,1.04886249789871e-05
-0.00231941952225086,0.00222299112218565,-9.13840039754115e-05,3.24929851450464e-05
-0.00227770818935085,0.00223256362870715,-4.64458682554626e-05,4.37590736188749e-05
-0.00224573625598766,0.00223797573077534,-1.65756712277261e-05,4.56917758393966e-05
-0.0021950603839791,0.00223602069831018,4.18947676145276e-05,4.51464898305123e-05
-0.00213196290325897,0.00223083509390563,0.000133934906234353,4.271696652052e-05
-0.00208992970525799,0.00222159637341478,0.000185701812125311,3.30030915129702e-05
-0.00207182181309592,0.00220830453683761,0.000127373480441515,1.53836906034106e-05
-0.00233763470277993,0.00218458188680302,-8.30548928325974e-06,-1.28141762459715e-06
-0.00237771286831575,0.00218321097989148,-0.000115555366867901,-5.87095195277037e-06
-0.0023953439232912,0.00219384444915321,-0.000136345802671543,5.43755728155223e-06
-0.002397632741787,0.002215278280692,-0.000110532509375202,2.57485483085514e-05
-0.00240236535086425,0.0022273780243026,-0.000103125319471597,4.11118294622678e-05
-0.00241001858770958,0.002226686610382,-0.000122958227287762,3.99878913037381e-05
-0.0024143101223892,0.00221242917850191,-0.0001332587377829,2.30367041863394e-05
-0.00240948214587463,0.00218929065402094,-0.000113561036671529,2.32886928934585e-06
-0.00238850130966314,0.00217297090130871,-8.06585150520403e-05,-1.15610889430298e-05
-0.00235157026955904,0.00217022908748562,-5.7474496072096e-05,-1.83717659100712e-05
-0.0023387552701685,0.00216554416212703,-4.64952413070505e-05,-2.09299746577628e-05
-0.0023364306888837,0.00217105163163254,-3.61237180027419e-05,-1.53137651707844e-05
-0.00232411636853912,0.00218772901223475,-1.72916530048709e-05,3.06249595208842e-06
-0.00229107155150602,0.00221390737378045,1.12192330263842e-05,2.61878838855458e-05
-0.00224411500955313,0.00222346795937228,4.39573388006281e-05,3.66480028321777e-05
-0.00222936881955676,0.00220989002048314,6.92443098985142e-05,2.60639308677987e-05
-0.00223765386567437,0.00219001783073055,7.32267715971545e-05,2.93607694327252e-06
-0.00224063409809077,0.00216720117135055,4.88024487738705e-05,-1.99113587072398e-05
-0.00228424085880761,0.00214647067466203,1.01504220819538e-06,-3.86600628834123e-05
-0.00235377564154718,0.00212948334988852,-5.56551661156001e-05,-5.63513106216111e-05
-0.00239800229060663,0.00211377156458924,-0.000102957110249187,-7.39043179167639e-05
-0.00240618004835725,0.00209801209557129,-0.000123827215751682,-8.79550661675619e-05
-0.00238910927707608,0.00209296954232273,-0.000109653531314789,-9.42181021167166e-05
-0.00235109343237242,0.00209679616074539,-6.87141278482491e-05,-8.98336930712751e-05
-0.00231041922035332,0.00211267483906,-2.47273033149686e-05,-7.46928324223514e-05
-0.00226832641770401,0.00213781607972479,1.20812145121262e-06,-5.16973721689268e-05
-0.00225288881378703,0.00216324342270156,1.18709796507403e-05,-2.33221881466206e-05
-0.00223692668896477,0.00219879163496444,3.43907842811717e-05,1.10501526349658e-05
-0.00217471135703989,0.00224186195384633,9.4340648886057e-05,4.97490211287574e-05
-0.00206810248304024,0.0022711039943161,0.000187872415218583,8.24193435036963e-05
-0.00196658384600781,0.00228487266807989,0.000280978379367312,9.67281087912758e-05
-0.00192363273642258,0.00228499187737655,0.000335962839241348,9.21933154409121e-05
-0.00191496622055568,0.00227216495705634,0.000336990990646102,7.94743140679303e-05
-0.00194430362846277,0.00225551141831347,0.000292158733124079,6.46403722657748e-05
-0.00202062142018207,0.00223511470765559,0.000217916334955655,4.3463359692062e-05
-0.00211335433205094,0.00221017612279511,0.000126627839822668,1.43383808296699e-05
-0.00220932973678885,0.00218187583576893,2.71204446539565e-05,-1.37374001139789e-05
-0.00229140533753665,0.00216097844606509,-6.86540554327814e-05,-3.25537211363659e-05
-0.00236457600382423,0.00214980853496841,-0.000143398832715316,-4.50074617639469e-05
-0.00240911259705499,0.00214449180033754,-0.000180096334005882,-5.61035312051807e-05
-0.00239056363049529,0.00213744653090516,-0.000171404631548814,-6.15559151077834e-05
-0.00233305706578833,0.00213984263776795,-0.000125830016106108,-5.47203295873427e-05
-0.00227855457535711,0.00216286195295226,-6.55284578251197e-05,-3.85567326105964e-05
-0.00222872508935482,0.00218471301702935,-1.54744700623942e-05,-2.07106509051382e-05
-0.00219347490033358,0.00219674123506196,1.10600277341549e-05,-2.03733504414558e-06
-0.00217853797546255,0.00221984399675393,2.12604557283167e-05,1.89903756216212e-05
-0.00216479314355809,0.0022421838189473,3.52937672231677e-05,3.45492998236907e-05
-0.0021403433168139,0.00223872674934427,6.31319030886748e-05,3.26104292128614e-05
-0.00210721505327314,0.00221613658762792,8.71608295177343e-05,1.30049057283985e-05
-0.00211476100175148,0.00219515575141643,7.56230341268202e-05,-1.21936026276648e-05
-0.00217740548714432,0.00217721475226967,1.88400759983852e-05,-3.34374912370895e-05
-0.00224577201877666,0.00216016782284783,-5.43098032253036e-05,-4.82277080476633e-05
-0.00229247822120656,0.00215718759043143,-0.000103304296213181,-5.22234213543228e-05
-0.00230196728122039,0.00217170728276415,-0.000113908442316645,-3.9568918086791e-05
-0.00229039205851508,0.00219779027687253,-0.000101627089806095,-1.52682140928838e-05
-0.00227388157092819,0.00221827043403807,-8.62297703810626e-05,4.87513492056669e-06
-0.00226612104571587,0.00222531570347045,-7.84077946213698e-05,1.22308447130217e-05
-0.00227242721750898,0.00222904695445579,-8.62894033429985e-05,1.40404646820139e-05
-0.00229803337443074,0.0022358061215762,-0.000111530423412748,1.96290133567669e-05
-0.00232045664313177,0.00224504484206705,-0.000132277269256363,2.78518272963619e-05
-0.00229903473252265,0.00225088609760321,-0.000111606403412784,3.42165704124838e-05
-0.00222964300093907,0.00225789560424659,-3.94235350172262e-05,4.02807458091207e-05
-0.00213986647962728,0.00226662172476183,4.60536442425252e-05,4.70422822011461e-05
-0.00209504378408455,0.0022673250596121,9.50343772642798e-05,4.73343189779869e-05
-0.00210047972801207,0.00225521339507183,9.7608087331792e-05,3.59776206888461e-05
-0.00210293543952319,0.0022426010514856,8.48549964177349e-05,2.23415203758019e-05
-0.00210561764869795,0.00224295867937557,8.59596483483502e-05,2.09841674697728e-05
-0.00210250628605522,0.00225327028353633,0.000100893269720339,3.17242949233251e-05
-0.00208513749153241,0.00226206792962956,0.00011227262956249,3.99504128744911e-05
-0.00208990586339866,0.00225775255309061,0.000106814507957603,3.65445108770103e-05
-0.00211948168989907,0.00224987281858163,8.33736710282011e-05,2.66012172473571e-05
-0.00215610278583186,0.00224061025623144,5.39440435481598e-05,1.62691158962565e-05
-0.00216643823185195,0.00222290767567799,3.9127081695809e-05,2.00977280622115e-06
-0.00215836776246832,0.00220325006265939,4.94644512110434e-05,-2.05989318058702e-05
-0.00214581502353042,0.0021787287103372,6.78847700361403e-05,-4.51614692781472e-05
-0.00215597165560553,0.00216274274365561,6.32241327598706e-05,-6.01662809958155e-05
-0.00219193710040671,0.00216074002747178,2.59496093016551e-05,-6.27652011768065e-05
-0.00223877443306294,0.00216367257616953,-2.09552021714553e-05,-5.88470666994688e-05
-0.00227803005445183,0.00217232717110677,-5.18559128814269e-05,-5.10246542966936e-05
-0.00230065597895717,0.00218851579359268,-6.73178506228411e-05,-3.52745427512199e-05
-0.00231072916452462,0.00221018804372478,-8.51696820938754e-05,-1.13038911640082e-05
-0.00234420313502569,0.00223418487514167,-0.000112850732024408,1.15768522728543e-05
-0.00238344683548491,0.00224610580480729,-0.000139264696556009,2.39514920124375e-05
-0.00238633170046399,0.00224871648840406,-0.000148637268643695,2.67266850658183e-05
-0.00237371935687777,0.00224763168380449,-0.000133105153226492,2.66053942309897e-05
-0.00234278454439548,0.00224584354435465,-9.4574274114391e-05,2.52964120552094e-05
-0.00229306234676017,0.00224089635854342,-4.20040700734698e-05,2.05283046208014e-05
-0.00223737968429206,0.00223530544253024,1.34108274016492e-05,1.52709800592929e-05
-0.00219075692836982,0.00223634256341115,6.38823952314412e-05,1.63001330347837e-05
-0.00215427888359302,0.00223889364235959,0.000104851432823241,2.21380968420585e-05
-0.00213042510333211,0.00224061025623144,0.000130410689795102,2.16514404365048e-05
-0.00212718261046306,0.00222785486148923,0.000136256138120435,9.18999148247213e-06
-0.00213691008907021,0.00220887674146156,0.000128143619845407,-6.35028536384486e-06
-0.00215185893487089,0.00220241559758279,0.000117129728119255,-1.34178292005767e-05
-0.00216810716200514,0.00220450176027428,0.000102670855418592,-1.23156876840708e-05
-0.00219936383958839,0.00220309509057373,7.25017535265006e-05,-1.07870127207383e-05
-0.00224895490699738,0.00220295203941775,2.63742656111883e-05,-1.08328232065477e-05
-0.00228884233765854,0.00220470441607859,-1.3185384049786e-05,-8.98620122377111e-06
-0.0023033501090616,0.00220618261135713,-2.54149250685882e-05,-6.07342393806794e-06
-0.00229539884897464,0.00220515741140589,-1.50492542556123e-05,-6.46858310674649e-06
-0.00227693332892259,0.00220327390451872,2.66874806969925e-06,-8.40954998503149e-06
-0.00225268615798272,0.0022054315927882,2.88507948436592e-05,-4.69318376564218e-06
-0.0022111178762387,0.00221421731795176,7.20671474655501e-05,5.72085710192165e-06
-0.00216439975287913,0.00222510112673647,0.000119292155589461,1.49385512456552e-05
-0.00214130891211682,0.0022258879080944,0.000140727206753852,1.69010651985866e-05
-0.00215847505083531,0.002219057215396,0.000126232418205185,1.40351994430737e-05
-0.00219006551444921,0.00221911682004433,9.59954965865238e-05,1.12033975238024e-05
-0.00221050990882575,0.00221712602479017,6.96527147054328e-05,9.14384115687978e-06
-0.00224251760497794,0.00220907939726587,4.35491109001682e-05,5.76038273589444e-06
-0.00227959169623802,0.00220346463939337,4.7921901305817e-06,-1.34526239272696e-06
-0.00233016027987959,0.00219177020739139,-5.1512663838512e-05,-1.44569069966053e-05
-0.002412891531759,0.00217051518979759,-0.000128059640443523,-3.24451511908369e-05
-0.00250793710398299,0.00215410006964803,-0.000228244726193841,-4.79770896410437e-05
-0.00261666790346312,0.00215032113494403,-0.000338045450131099,-5.39925865686216e-05
-0.00269944683906119,0.002150607237256,-0.000420160371339174,-5.17914817452791e-05
-0.00271838919629986,0.00215468419520165,-0.000443874225372594,-4.5523421982197e-05
-0.00268883721165879,0.00217095626419522,-0.000412506886254145,-3.17932607862346e-05
-0.0026232959403572,0.00219522727699442,-0.000349231550675908,-6.56195843069073e-06
-0.00253524795384693,0.00221786512242944,-0.000268021670976668,1.89698478683704e-05
-0.00244584098135477,0.00222669853131166,-0.000174286163182905,2.53931680223056e-05
-0.00235062851611546,0.00221334709008617,-8.21728098627609e-05,1.2038792347789e-05
-0.00227090133851179,0.00219992412328268,-9.88451034428905e-06,1.21410049989222e-06
-0.00222576869879774,0.00220808996010363,3.80673348633248e-05,8.41748182075964e-06
-0.00219277156548331,0.00222513688952547,6.76987585812976e-05,2.4151663097364e-05
-0.00217663062671605,0.00223431600536799,8.09282859917282e-05,3.56431386162564e-05
-0.00217300666409771,0.00224924100930935,8.12341952791212e-05,4.93693443046933e-05
-0.00216653359928927,0.00227341665467123,8.54360951243014e-05,7.40892968153808e-05
-0.00214675677697401,0.00229418291414874,0.00010588934378624,9.42456286332669e-05
-0.00212159169444988,0.00228314413327838,0.000123701920065748,8.36716390205808e-05
-0.0021400691354316,0.002241802349198,0.000106129412683994,4.20894603378506e-05
-0.00218738330527444,0.00219694389086627,5.57170762753713e-05,-3.20419829131888e-06
-0.0022201658618549,0.00216774953411517,1.90254374870718e-05,-3.21582660811148e-05
-0.00220267785803544,0.00215158475348859,3.72283843248156e-05,-4.85092546733693e-05
-0.00212956679639618,0.00214260829345037,0.000106011591929569,-5.87507977452595e-05
-0.00204092276340263,0.00214464677242319,0.000191825933901562,-5.58541361731722e-05
-0.00196460497168332,0.00216602099931365,0.000267246782675277,-3.48794305114063e-05
-0.00191532384844564,0.00219182981203972,0.000317210547277688,-9.80237927276519e-06
-0.00189700137954959,0.00220255864873878,0.000328819001464048,-6.69565057423238e-07
-0.00192909252220944,0.00219076884929948,0.000296175906302828,-1.08788397298898e-05
-0.0019971014259518,0.00217415107334561,0.00023076496700281,-2.75726646724194e-05
-0.0020685673992972,0.00216608060396198,0.000154229381493678,-3.93701750336937e-05
-0.00213804257738844,0.00215959561822388,8.26056493418556e-05,-4.44105360174824e-05
-0.00220118774182723,0.00215832007874966,2.13594180955168e-05,-4.43831101330003e-05
-0.00225234045102241,0.0021669746736869,-3.27716384183249e-05,-3.97886819077289e-05
-0.00231084837382128,0.00217331660826901,-8.95908019231979e-05,-3.13987274368433e-05
-0.00236984505473644,0.00218683494250983,-0.000153183537124026,-2.11425724313105e-05
-0.00242391839169969,0.00219540609093941,-0.000205436914061902,-1.08973164790355e-05
-0.00243653073528592,0.00220381034635367,-0.000216111033297579,-2.06416481261892e-06
-0.00239621415115679,0.00221644653179923,-0.000179708389466803,5.49466286916346e-06
-0.00234501375824295,0.00222504152208814,-0.000128345159358032,1.52130057994769e-05
-0.00231527103872723,0.00223816646564999,-9.40598090433477e-05,3.07609954323595e-05
-0.00228774561212931,0.0022589327251275,-7.05388355065607e-05,4.90154353499766e-05
-0.0022460700420183,0.00227581276153402,-2.92101798690345e-05,6.00555233644008e-05
-0.00218837274243669,0.00226691974800347,3.57890781724221e-05,5.72908367957623e-05
-0.00211949361082873,0.00225551141831347,9.80274160572355e-05,4.45656485239556e-05
-0.00208984625875033,0.00224704755825088,0.000130519271761578,3.07399646429303e-05
-0.00209479344456157,0.00223537696810823,0.000129994015749245,2.05714964789958e-05
-0.00211193574142073,0.00222705615920163,0.000110625270791334,1.3290746235781e-05
-0.00213581336354097,0.00222221626175739,8.86707047262298e-05,6.11300852681326e-06
-0.00215052379074834,0.00221289409475887,7.40071502386425e-05,-4.18455280119106e-06
-0.00216352952501354,0.00219886316054244,6.43822251928288e-05,-1.95130387905076e-05
-0.00218437923099871,0.00218148244508996,4.69982760638017e-05,-3.63483685716017e-05
-0.00221174968551097,0.00217206491065412,1.54512669232157e-05,-4.60263453050593e-05
-0.00224457992581009,0.00217797769176827,-1.65385315872026e-05,-4.27416813653843e-05
-0.0022695781153189,0.00219185365389905,-2.90435256618311e-05,-2.91429569276875e-05
-0.00225414051140192,0.00220934165771852,-2.15764217670188e-05,-1.14788092414082e-05
-0.00224343551656219,0.00222877277307348,-1.2910209545045e-05,7.25346452901198e-06
-0.00225847972980021,0.00224826349307677,-1.65317420691595e-05,2.54318377521432e-05
-0.00227088941758212,0.00226137651570895,-2.8990088513409e-05,3.76008826305792e-05
-0.00227882875673942,0.00226162685523193,-4.24867750137198e-05,3.72458714750651e-05
-0.00229668630937852,0.00224809660006145,-5.49344943856529e-05,2.460642856625e-05
-0.00231012119711168,0.00223222984267651,-6.4194286305972e-05,7.51561451544191e-06
-0.00230940594133174,0.00222195400130475,-6.47965490372184e-05,-5.87483784113887e-06
-0.00230212225330605,0.0022133709319455,-5.63106211880053e-05,-1.23511663298238e-05
-0.00229238285376923,0.00221292985754787,-4.68247405646003e-05,-1.22590239125167e-05
-0.00229325308163482,0.0022213460338918,-4.41115680371582e-05,-6.98758741458358e-06
-0.00230221762074337,0.00222955955443141,-4.99212778358458e-05,5.35071384224359e-07
-0.00231095566218827,0.0022323013682545,-6.36090522430661e-05,5.31055631664502e-06
-0.00233186497282177,0.00223175300548989,-8.12875772682977e-05,3.07451021080365e-06
-0.00234297527927013,0.0022232891454273,-8.92105097187677e-05,-5.47389063261024e-06
-0.00232388987087547,0.00221625579692458,-7.0954232025143e-05,-1.3776093243762e-05
-0.00228165401707017,0.0022167683969002,-2.98016377739079e-05,-1.42107541390582e-05
-0.00224801315355379,0.00222188247572675,4.79202399496468e-06,-5.26761218486597e-06
-0.00225067152086923,0.00223685516338677,4.7243346761658e-06,6.25143057322071e-06
-0.00227775587306952,0.00224457992581009,-2.45763898329492e-05,1.14117378191291e-05
-0.00230296863931231,0.00223675979594945,-4.85810456167383e-05,7.35557158251626e-06
-0.00229675783495652,0.002226650847593,-4.2246683341983e-05,-1.50903488436645e-06
-0.0022695781153189,0.00222327722449763,-1.8087501062663e-05,-9.33057519132903e-06
-0.00226731313868243,0.00221972478745727,-1.07637378469686e-05,-1.41012270268082e-05
-0.00228948606786049,0.00220867408565724,-3.58883747385817e-05,-1.84214273017721e-05
-0.00232359184763383,0.00220361961147902,-7.15926398242964e-05,-2.68928235809341e-05
-0.00233484520523818,0.00219370139799722,-8.47315075757923e-05,-4.04110928816501e-05
-0.00232431902434343,0.00218031419398273,-6.77789652362086e-05,-4.99246933565427e-05
-0.00229091657942036,0.0021894098633176,-3.89143533936877e-05,-3.93663214231233e-05
-0.00225653661826471,0.00222941650327542,-1.0116704375241e-05,-1.54917589561944e-06
-0.00222530378254078,0.00228238119377978,2.58224759911584e-05,4.93603865002373e-05
-0.00218327058453981,0.00231630815960813,7.04314012498752e-05,8.76965510307052e-05
-0.00214681638162234,0.00232834829857041,0.000100947650469521,9.91927191923125e-05
-0.00214954627451576,0.00231970562456284,9.3830579269449e-05,8.8568366064117e-05
-0.00219329608638859,0.00229622139312156,5.70936106439049e-05,6.59333263971885e-05
-0.00222848667076151,0.00226399912023539,2.14138415863842e-05,3.58426543373521e-05
-0.00223835720052464,0.00223100198692095,3.8297474448069e-06,2.39826198449141e-06
-0.00224695219081355,0.00220453752306327,-2.9976241375218e-06,-2.57737158422853e-05
-0.00225533260436848,0.00218434346820971,-8.17967667049098e-06,-4.31601304018635e-05
-0.00225075496737689,0.00217466367332123,-7.1690839453744e-06,-5.28499481051581e-05
-0.00223507894486659,0.00217132581301485,8.53657987939241e-06,-5.71777585784077e-05
-0.00220080627207793,0.0021769286499577,3.94976905019399e-05,-4.97540561341476e-05
-0.00216494811564375,0.00220094932323392,7.85086654385484e-05,-2.59915389076786e-05
-0.00213031781496512,0.00223009599626636,0.000112509517454386,3.434534092185e-06
-0.00211740744813725,0.002245617046691,0.000125108025341908,2.02681039200846e-05
-0.00212924493129521,0.0022441626932718,0.000108809344669679,1.82881620667863e-05
-0.00216658128300794,0.00223258747056648,7.40105503217524e-05,6.62104088283506e-06
-0.00221159471342532,0.00221819890846007,3.50988442811981e-05,-4.78400594261766e-06
-0.00224585546528432,0.00221167815993298,-7.84928520107311e-06,-1.34342965137319e-05
-0.00229653133729287,0.00220645679273944,-5.82130686804018e-05,-1.83045135386733e-05
-0.00234315409321511,0.00220600379741214,-9.88761834542196e-05,-1.5925075920493e-05
-0.00234686150234112,0.00221735252245382,-0.000102043074204865,-6.0228407896517e-06
-0.00230469717411382,0.0022285939591285,-6.60909367009444e-05,5.65572034152056e-06
-0.00226349844118943,0.00223569883320921,-2.1627701565629e-05,1.31651282700217e-05
-0.00224276794450092,0.00223543657275656,5.3097305385989e-06,1.42325514761366e-05
-0.00222464813140918,0.00222880853586248,1.70330758797392e-05,7.81100439389121e-06
-0.00221912874097399,0.00221688760619686,2.59992993707767e-05,-5.35608006394112e-06
-0.0022140623458661,0.0022030712487144,3.5913347717559e-05,-1.80606937074308e-05
-0.00218998206794155,0.00219919694657308,5.13884020956891e-05,-1.99390252865092e-05
-0.00216985953866598,0.00221145166226933,8.21941145727513e-05,-8.89695257860238e-06
-0.0021343470891921,0.00222839130332418,0.000119804395021346,6.81163390479498e-06
-0.00211461795059549,0.0022403479957788,0.000130176650958876,2.06779044597189e-05
-0.00215811742294535,0.00225211395335877,9.3769127341519e-05,3.46577000945316e-05
-0.0022206188571822,0.00227029337109884,3.93406765209777e-05,4.92066845396385e-05
-0.00224382890724116,0.00227545513364405,1.24734031326366e-05,5.46627628602649e-05
-0.00223295701938611,0.00225868238560452,1.72774602594134e-05,4.12826222051662e-05
-0.0022460342792293,0.00223274244265213,1.38135694922994e-05,1.37964257010947e-05
-0.0022961737094029,0.00220836414148594,-2.79564310794788e-05,-1.25767083940568e-05
-0.00235253586486196,0.00219042314233918,-9.30458773425831e-05,-2.8623919577224e-05
-0.00239719166738937,0.00218306792873549,-0.000141356416677977,-3.56521684681798e-05
-0.00241458430377151,0.00218472493795901,-0.000144028292188333,-3.50533811021248e-05
-0.00237326636155047,0.00219552530023606,-9.82677203622234e-05,-2.38268510879936e-05
-0.00228644623079575,0.00221689952712652,-2.59680841326123e-05,-4.38010129983879e-06
-0.00223085893576496,0.00222848667076151,3.41913438964115e-05,9.1372819616801e-06
-0.00223486436813261,0.00222156061062578,4.81731692636297e-05,2.27832168560461e-06
-0.00226044668319504,0.00219835056056682,1.29374446812557e-05,-2.29687237030432e-05
-0.00230677141587564,0.00217558158490548,-4.10977389122335e-05,-4.78298305369333e-05
-0.00235633864142529,0.00216448319938679,-7.64168772389098e-05,-5.40357486152595e-05
-0.00235575451587167,0.00218222154272923,-7.35017004754265e-05,-3.92778127735068e-05
-0.0023105980342983,0.0022091390019142,-3.41629885165354e-05,-1.54382857048189e-05
-0.00225038541855725,0.00222839130332418,2.60248014454124e-05,5.42270746532551e-06
-0.00219718230945959,0.00224140895851904,8.45066628015513e-05,2.06314882325128e-05
-0.00216445935752746,0.00225781215773893,0.000122194252582389,3.34896504696317e-05
-0.00214412225151791,0.00227140201755774,0.000134951444724329,4.45822410209026e-05
-0.00215038073959236,0.00227378620349087,0.000130680904859766,4.99827270212289e-05
-0.00217212451530245,0.00227046026411416,0.000113680837963203,4.69956684907451e-05
-0.00220496667653124,0.00226609720385654,7.98313539008939e-05,3.75377429289069e-05
-0.00225503458112684,0.0022517563254688,3.00090174126553e-05,2.45965338119081e-05
-0.00230121626265146,0.00223510278672593,-2.10984713367585e-05,8.82455972848705e-06
-0.00234203352582654,0.00221928371305965,-5.62259748118274e-05,-8.8947570606698e-06
-0.00235906853431872,0.00220516933233555,-7.05287932098481e-05,-2.44719666708618e-05
-0.00235140337654372,0.00219521535606476,-7.10409885184188e-05,-3.42584549166993e-05
-0.00234612240470185,0.00218954099354392,-6.66535568017102e-05,-4.06523676875325e-05
-0.00235252394393229,0.00218110097534066,-6.31598991689294e-05,-4.98893473003578e-05
-0.00234385742806538,0.00216767800853717,-6.312490887951e-05,-6.33060394487883e-05
-0.00234403624201037,0.00215921414847458,-6.58496320315378e-05,-7.3846671829295e-05
-0.00235189213466001,0.00216076386933111,-7.13647926929238e-05,-7.33813327810783e-05
-0.00236896290594118,0.00216923965032337,-8.67718914918641e-05,-6.23357012052181e-05
-0.00239726319296737,0.0021840692868274,-0.00012060977525125,-5.00038425164373e-05
-0.00243968978164731,0.00219272388176464,-0.000165062171320347,-4.47310579786194e-05
-0.00246812119889982,0.00219044698419851,-0.000192980328376882,-4.47688979789893e-05
-0.00246142163642774,0.00219248546317133,-0.000184401014053037,-4.03703956823547e-05
-0.00242049708488566,0.00221399082028811,-0.000150688510946694,-2.50005246087814e-05
-0.0023858787051367,0.00223711742383942,-0.000117603654439441,-1.81223076327248e-06
-0.00235668434838559,0.00225877775304185,-8.61432738419936e-05,2.30083017914209e-05
-0.00229786648141542,0.00228612436569478,-2.98389276533352e-05,4.96634481102275e-05
-0.0022027255417541,0.00232205404770696,6.06944978553282e-05,8.11370118415651e-05
-0.00211237681581836,0.00235120072073941,0.000148527704088502,0.000110855805959859
-0.00207875979416131,0.002359628818013,0.000184605564280703,0.000122880835207039
-0.00209769023047031,0.00234801783251869,0.000163130988617667,0.000109498465807911
-0.00213193906139964,0.00232572569404398,0.00012211349309304,8.27372216124781e-05
-0.00216367257616953,0.0023022772253917,9.0828947116335e-05,6.18512310922717e-05
-0.00219559682581406,0.00229035629572608,6.11914853970882e-05,5.31437514640019e-05
-0.00223121656365493,0.00228962911901648,1.90542640908147e-05,4.87432993122287e-05
-0.00227023376645051,0.00228453888204926,-2.11001567456651e-05,4.15175950902055e-05
-0.00228014005900264,0.002272212640775,-3.41885804184177e-05,3.20590323999184e-05
-0.00227154506871373,0.00225964798090744,-2.25220378602584e-05,2.18712539633369e-05
-0.00225631012060106,0.00225101722782953,-9.88240620983629e-06,9.36203351142589e-06
-0.00224033607484913,0.0022376777075337,-3.54014215839217e-06,-4.99757639411074e-06
-0.00223485244720295,0.00222152484783678,1.0018635710283e-05,-1.71579766804683e-05
-0.00221236957385359,0.00221244109943158,2.93067738935864e-05,-2.61686555795125e-05
-0.00221004499256879,0.0022053958299992,2.76387264093246e-05,-3.57891218309569e-05
-0.00224150432595636,0.00219439281191783,-5.84437412367819e-06,-4.61912375888307e-05
-0.00227462066856746,0.00218787206339074,-3.69300904897868e-05,-5.05801696740696e-05
-0.00225906385535382,0.0021932603235996,-2.1034005864415e-05,-4.46159967259834e-05
-0.00219101918882246,0.00220514549047622,4.26560383343239e-05,-3.38495381271039e-05
-0.00211923135037609,0.00221307290870386,0.000111944584099658,-2.67652103142782e-05
-0.00208656800309229,0.00221173776458131,0.000151562907723254,-2.45359843585598e-05
-0.00206878197603118,0.00221449149933407,0.000163210884748774,-2.22926430565865e-05
-0.00206568253431812,0.0022202373874329,0.00016648820626382,-1.66994798562584e-05
-0.00206606400406742,0.00222933305676776,0.000168775959632818,-7.65417720502596e-06
-0.00206978333412309,0.00223989500045151,0.000161037880165263,3.69958914326264e-06
-0.00210272086278921,0.00224636806525994,0.00013212524333134,1.36072949318119e-05
-0.00215572131608256,0.00225107683247786,7.95849908481877e-05,1.59759641699366e-05
-0.00221952213165296,0.00224541439088669,1.16942544412053e-05,9.62029945176817e-06
-0.00229101194685769,0.00223485244720295,-5.67145529744379e-05,2.12996342066129e-06
-0.002352035185816,0.00223091854041329,-0.000113957173630358,5.00656532590205e-07
-0.00239613070464913,0.00223360074958806,-0.000158996713039132,6.86282020007809e-07
-0.00242891326122959,0.00222758068010692,-0.000195861993611837,-6.6016416812799e-06
-0.00245888247840896,0.00220707668108205,-0.000220441478169303,-2.1493996713603e-05
-0.00246361508748621,0.0021946789142298,-0.000218665641836121,-3.41596560998934e-05
-0.00241910233611478,0.00219283117013163,-0.000181927785515986,-3.84904612789757e-05
-0.00236182226907148,0.00219123376555644,-0.000122832271969961,-3.88273160940986e-05
-0.00231821550835463,0.00218706144017347,-7.11271351833689e-05,-4.05063665602633e-05
-0.00229387296997744,0.00218626273788588,-4.75762273758577e-05,-3.97897948400522e-05
-0.00228066457990793,0.00220094932323392,-3.74451290957552e-05,-2.75640489659281e-05
-0.00224536670716803,0.00222857011726916,3.13736443770221e-06,-8.00541679871542e-07
-0.00215076220934166,0.00225619091130441,9.95842814981577e-05,3.20094581265522e-05
-0.00203461659160951,0.002279806272972,0.000216563741571145,5.59655397206464e-05
-0.00197290193873059,0.00228885425858821,0.000282516792340724,6.0805587075683e-05
-0.00198237907781476,0.00227651609638429,0.000267634927621595,4.9484488440863e-05
-0.00203659546593401,0.002257096901959,0.000219701384427343,3.55499669276098e-05
-0.00206143868335716,0.00225279344634971,0.000203212542613312,2.97704326247467e-05
-0.00203760874495558,0.00225857509723753,0.000217778463513815,3.06670317814421e-05
-0.00205088866060309,0.00225491537183019,0.000205426557285003,3.06455890716391e-05
-0.00213689816814054,0.00224736942335185,0.000132505666556439,2.76826094241569e-05
-0.00223605646109918,0.00224963439998832,2.96263287885434e-05,2.49094387079615e-05
-0.00231654657820145,0.00224746479078917,-5.68165079812328e-05,2.13527096579761e-05
-0.00238769068644587,0.00223342193564307,-0.000119779045619993,1.1806650707231e-05
-0.00245220675779621,0.00221822275031941,-0.000179389529305042,-3.70402554593102e-06
-0.00250941529926153,0.00220551503929585,-0.00024138978068089,-1.88382441784715e-05
-0.00256247535720321,0.00219273580269431,-0.000294566275417232,-3.11533281266509e-05
-0.00260916963870344,0.00217829955686924,-0.000335019924336151,-4.47417364386014e-05
-0.00263752953037796,0.00216423285986381,-0.000364637048756734,-5.91587232949134e-05
-0.00264408604169405,0.00215801013457836,-0.000369906769946414,-6.4488481802856e-05
-0.00260083690886717,0.00217142118045218,-0.000327444076973729,-5.34652005185015e-05
-0.00250761523888202,0.00219457162586281,-0.000233451026486635,-3.14862881066692e-05
-0.00238766684458654,0.00221338285287516,-0.000110243305168884,-8.10855990239342e-06
-0.0022585870181672,0.00223817838657966,1.78151852122461e-05,1.44083202760294e-05
-0.00213717234952285,0.00226463092950767,0.000138333271637657,3.58891875401766e-05
-0.00203524840088179,0.00227291597562527,0.000239971878181923,4.83107275723769e-05
-0.00197143566438172,0.00226569189224791,0.000307029985148861,4.2824422119982e-05
-0.00194492351680538,0.00225201858592144,0.000332986723709226,2.42080452152936e-05
-0.00194942962821899,0.00223528160067091,0.000326234300212421,7.00443909915135e-06
-0.00197829019893945,0.0022239805593479,0.000295476556739967,-2.48198458954059e-06
-0.00203814518679054,0.00221601737833127,0.000240930958656307,-9.81272529638419e-06
-0.00211316359717629,0.00221074832741906,0.000165459447138317,-1.79930452716169e-05
-0.00218970788655924,0.0022091747647032,8.12585392466266e-05,-2.19247301974199e-05
-0.00227596773361967,0.00220687402527773,-2.02667554643757e-06,-2.07730239743694e-05
-0.00236186995279014,0.00220500243932023,-8.28619131797088e-05,-2.33457037603028e-05
-0.00242741122409172,0.00219789756523952,-0.000153042217492394,-3.37985953851468e-05
-0.00246078982715546,0.00218869460753766,-0.000193097468912568,-4.27990220513961e-05
-0.00247188821267415,0.00218855155638168,-0.000197912862750082,-4.30913629111578e-05
-0.00247068419877793,0.00218529714258296,-0.000194671897123175,-4.45399736904733e-05
-0.00248368993304312,0.00217353118500299,-0.000214582527058737,-5.92085061968387e-05
-0.0025172950337705,0.00216006053448084,-0.000251506952302018,-7.61250099036301e-05
-0.00254071966056345,0.00216431630637147,-0.000268428827053787,-6.80091701467662e-05
-0.00251631751753792,0.00220403684401732,-0.000243699920689833,-2.59562815905544e-05
-0.00245324387867712,0.00226550115737326,-0.000190979015906309,2.66151783202143e-05
-0.00239816918362195,0.0022973181186508,-0.000131521298518536,6.0853190684454e-05
-0.00233867182366084,0.00230295671838264,-6.86714643624271e-05,7.19632597686337e-05
-0.00226361765048609,0.00231074108545429,7.49161482846266e-07,7.37143447905297e-05
-0.00219532264443175,0.00231238617374815,6.84297695994884e-05,7.39904388354945e-05
-0.0021396161401043,0.00230556740197941,0.000123247633149666,6.91741105302595e-05
-0.00210059893730872,0.00229332460721282,0.000166494041869676,5.84053422944375e-05
-0.00205880415790106,0.00228650583544408,0.000203225257418174,4.86576559049948e-05
-0.0020340324660559,0.00228201164496014,0.000225757492653657,4.28601655260937e-05
-0.00204479706554395,0.00227158083150273,0.000220932248703837,3.38523318927326e-05
-0.00207006943643507,0.00225205434871044,0.00019082848008908,1.59176826431688e-05
-0.00210728657885114,0.00223387493097037,0.000153315677919446,-4.67265391769695e-06
-0.00214067710284454,0.00222337259193495,0.000122446488155412,-1.70869163290175e-05
-0.00216324342270156,0.00221762670383613,9.77985545824793e-05,-1.96693629433808e-05
-0.00218828929592903,0.00221732868059448,7.2133327065243e-05,-1.9722175120417e-05
-0.00222244275942104,0.00221800817358543,4.14327941677111e-05,-2.15542312863882e-05
-0.00225071920458789,0.00221835388054573,9.4622768988393e-06,-2.13025388968367e-05
-0.00227274908260996,0.00222290767567799,-1.02660882251546e-05,-1.44441146810638e-05
-0.00226523889692062,0.00223413719142301,-2.13455404492868e-06,-3.33602099452568e-06
-0.00223143114038891,0.00224438919093544,3.14364913932517e-05,5.44423457378075e-06
-0.00220052016976596,0.00224783433960881,6.24825028219586e-05,8.61575195323868e-06
-0.00220073474649994,0.00224517597229338,6.40673978795072e-05,8.43276743576745e-06
-0.00222369445703593,0.00224553360018334,4.18008785267419e-05,8.86997348143344e-06
-0.00224056257251278,0.00225052846971324,2.34626628459995e-05,1.21413586889671e-05
-0.00224884761863039,0.0022566439066317,1.86482763418799e-05,1.82195122361634e-05
-0.00226025594832039,0.00225915922279115,8.37455765550369e-06,2.4467820046871e-05
-0.00228782905863697,0.00226094736224099,-2.08984781983935e-05,2.4815789303781e-05
-0.0023224235965266,0.00225063575808023,-5.40988851891705e-05,1.2881856444322e-05
-0.0023440600838697,0.00222538722904844,-7.08170550167773e-05,-1.02868446920943e-05
-0.00234587206517887,0.00220098508602292,-7.46149998028238e-05,-3.27818734074363e-05
-0.0023508907765681,0.00219405902588719,-8.07815226116817e-05,-4.05825653701052e-05
-0.00235929503198236,0.00220571769510017,-8.46893113014703e-05,-3.08682080382166e-05
-0.00234141363748393,0.00221942676421563,-6.30192935647747e-05,-1.34772114492416e-05
-0.00227935327764471,0.00223366035423639,-6.42773656216135e-06,1.48505664410771e-06
-0.00221202386689328,0.00224680913965757,6.40883408718235e-05,1.27701296374269e-05
-0.00216473353890977,0.00225586904620344,0.00011664086370485,2.24652693464086e-05
-0.0021449209538055,0.00225888504140884,0.000134838620172886,2.7356545828378e-05
-0.00215519679517727,0.00225241197660041,0.000123075049168305,2.2434071869958e-05
-0.00218787206339074,0.00224334014912487,9.45271218331823e-05,1.03716154783233e-05
-0.00222532762440012,0.00223114503807694,5.87674834531962e-05,2.13261351832925e-07
-0.00226533426435794,0.00222562564764176,1.80878161716279e-05,-3.50961282044152e-06
-0.00231161131331988,0.00222455276397185,-2.70309798424272e-05,-4.50082595343149e-06
-0.00235542072984104,0.00222365869424693,-7.12606759998814e-05,-7.46092258938447e-06
-0.00239642872789077,0.00221518291325467,-0.000108090606311932,-1.33528217765718e-05
-0.00242847218683196,0.00220487130909391,-0.000139927974985616,-2.23384403326991e-05
-0.00245895400398695,0.00219503654211977,-0.000174504693471247,-3.38521738582476e-05
-0.00249595656966904,0.00218663228670551,-0.000206108311045141,-4.12984847008581e-05
-0.00250395551347467,0.00219262851432732,-0.000212587675947814,-3.47945008751027e-05
-0.00247125640340188,0.00221159471342532,-0.000183587596787515,-1.47661609910858e-05
-0.00243181004713834,0.00223027481021135,-0.000142465065709337,3.45251423108108e-06
-0.00241395249449924,0.00223265899614447,-0.000121868953493806,5.70957622228782e-06
-0.00241097226208283,0.00222195400130475,-0.000120471637679669,-4.17344132329588e-06
-0.00239341273268537,0.0022148968109427,-0.000103987116366485,-1.05674006881635e-05
-0.0023447872605793,0.00221971286652761,-5.24593097525596e-05,-5.85931065987424e-06
-0.00227774395213985,0.00222958339629074,1.34408893548281e-05,3.47946006976767e-06
-0.00222580446158674,0.00223451866117231,6.31267176241357e-05,8.74406951404676e-06
-0.00219732536061557,0.00223224176360618,9.51231090545603e-05,8.23197882716114e-06
-0.00216503156215141,0.00222929729397877,0.00012755726694495,3.73596166933115e-06
-0.0021259905174965,0.00222171558271143,0.000160131274686304,-4.13639471114764e-06
-0.00212287915485377,0.00221130861111335,0.000168746517776766,-1.33194296152563e-05
-0.00215311063248578,0.00220642102995044,0.00014090241673914,-1.79628592865932e-05
-0.00218626273788588,0.0022125722296579,9.86953707298709e-05,-1.29164376190274e-05
-0.0022121907599086,0.00222684158246765,7.62400085200435e-05,1.34839192431166e-06
-0.00221024764837311,0.00224426998163879,8.29680041979989e-05,1.97724036036391e-05
-0.00218735946341511,0.00226148380407594,9.90388170027668e-05,3.60660554319279e-05
-0.00218455804494369,0.00226925625021793,0.000101439918245945,4.41975777244867e-05
-0.00220623029507579,0.00226594223177089,8.28184818200337e-05,4.03479686749702e-05
-0.00224285139100858,0.00225178016732813,4.53144053801221e-05,2.59491321848273e-05
-0.00229561342570862,0.00223240865662149,-1.04901877619184e-05,6.83626208193816e-06
-0.0023676754455373,0.00221309675056319,-8.19061676578949e-05,-1.20432051313927e-05
-0.00244362368843697,0.00219737304433424,-0.000156494006498279,-2.93225464780619e-05
-0.00250389590882635,0.00218267453805652,-0.000218864021854718,-4.46047445417014e-05
-0.00254826560904179,0.00216863168291042,-0.000263431369071752,-5.66853768832938e-05
-0.00257505193800044,0.00216046584608947,-0.000290183258629958,-6.52815463462359e-05
-0.00257273927764531,0.00215910686010759,-0.000287278797603065,-7.0226894902961e-05
-0.00251464858738474,0.00216059697631579,-0.000231114370432912,-6.66280180265546e-05
-0.00239764466271667,0.00217962278006213,-0.000113228066344255,-4.53928662486504e-05
-0.00224735750242218,0.0022255064383451,3.87565822689538e-05,-3.6606163835807e-06
-0.00210603488123625,0.00227645649173596,0.00017630210378245,4.67241105261859e-05
-0.00202065718297107,0.00231195702028018,0.000264315110041825,8.54064488106724e-05
-0.00199058067742471,0.00232698931258853,0.000295355912791264,9.85895248201045e-05
-0.00200792563008819,0.00231602205729616,0.000276857769020264,8.65614849651372e-05
-0.00206499112039752,0.00228923572833751,0.000219025959197709,5.88474346985279e-05
-0.00214828265597121,0.00225493921368952,0.000138841437694633,2.65285650900912e-05
-0.00222216857803873,0.00222800983357488,6.40653054757693e-05,-8.13814169728262e-07
-0.00226627601780152,0.00221549285742598,2.10596368634088e-05,-1.5942349838989e-05
-0.00227044834318449,0.00221495641559103,1.66196280591687e-05,-1.61306992730963e-05
-0.00225322259981767,0.00222409976864456,3.47169587328501e-05,-4.66192355538907e-06
-0.00223797573077534,0.00224231494917363,5.20057265482089e-05,1.11176495309843e-05
-0.00223609222388817,0.00225596441364076,5.63808198598693e-05,2.39008340462293e-05
-0.00223555578205322,0.00226115001804531,5.15342921247661e-05,2.9805048142554e-05
-0.00224686874430589,0.00226012481809406,4.5466618262658e-05,2.96306382465566e-05
-0.00226063741806969,0.00225946916696245,3.78471378799987e-05,2.72861135686965e-05
-0.00226856483629732,0.00225863470188586,2.2142668073109e-05,2.56191653631708e-05
-0.00229418291414874,0.00225414051140192,-1.4584990977944e-06,2.29932539847053e-05
-0.00232458128479608,0.00224761976287483,-2.29065003774139e-05,1.4853111020034e-05
-0.00233336700995964,0.00223194374036454,-3.56999153042313e-05,-7.9003964906402e-07
-0.00234355940482374,0.00221190465759663,-4.66312201251169e-05,-2.0653801257621e-05
-0.00236456408289457,0.00219314111430294,-6.51555389696327e-05,-3.99494625012085e-05
-0.00239282860713176,0.00217585576628779,-8.74784451490794e-05,-5.74023615403981e-05
-0.00240192427646662,0.00215878499500662,-9.94502493213577e-05,-7.41978999322449e-05
-0.00239439024891795,0.00214440835382988,-9.30059195006332e-05,-8.83396206191391e-05
-0.0023767949567315,0.00214141620048381,-7.17831400433875e-05,-9.33579654102036e-05
-0.00235328688343089,0.00214836610247887,-4.22599801305469e-05,-8.45857793660234e-05
-0.00231275572256778,0.0021680833201458,-8.39153055661074e-06,-6.47123714564404e-05
-0.00228142751940653,0.0021939875003092,2.47336416709549e-05,-4.0506164685961e-05
-0.00226225866450421,0.00221897376888834,5.02124837243656e-05,-1.53305534439755e-05
-0.00224704755825088,0.0022445084002321,6.37218406008614e-05,1.17030504779546e-05
-0.00224553360018334,0.00227326168258558,6.31354792679303e-05,3.95339041145913e-05
-0.00226374878071241,0.00229712738377615,4.65765686887954e-05,6.25047626272764e-05
-0.00229605450010625,0.00230978741108104,1.9979493774095e-05,7.57968919186252e-05
-0.00230710520190628,0.0023128510900051,2.76490757990336e-06,8.01097530570714e-05
-0.0023018599928534,0.00231252922490413,1.04261191892643e-05,7.8079352188875e-05
-0.00228338255187169,0.00230323089976495,2.98642437282821e-05,6.87802538537454e-05
-0.00228444351461193,0.00228302492398172,2.95798075457393e-05,4.99842943494176e-05
-0.00230976356922171,0.00225831283678489,1.86377892734121e-06,2.5069797200048e-05
-0.00233390345179459,0.00223838104238397,-2.24584320756557e-05,3.47423199456117e-06
-0.00232892050319436,0.00222643627085902,-1.5391886513597e-05,-7.11887262801759e-06
-0.00230592502986938,0.00222449315932352,5.87486623653847e-06,-7.2393719513436e-06
-0.00231035961570499,0.0022308470148353,-2.00374664636616e-06,-4.01499829721636e-06
-0.00236349119922466,0.00222960723815007,-5.2259229896747e-05,-5.00015735976849e-06
-0.00242056861046366,0.00221700681549351,-0.000110197389594748,-1.36331164239599e-05
-0.00243718638641753,0.00220502628117956,-0.000133161067264518,-2.80319406884551e-05
-0.00242170109878189,0.00219368947706756,-0.000112798918908801,-4.22252406897285e-05
-0.00237857117525167,0.00218241227760388,-7.3259704510414e-05,-4.90471996822143e-05
-0.00234075798635232,0.00218652499833852,-4.0040747427173e-05,-4.3307627101354e-05
-0.00232138647564569,0.00221152318784733,-1.80546475637285e-05,-2.3966623669493e-05
-0.00229508890480333,0.00223792804705668,6.09669176052255e-06,4.29506003765529e-06
-0.00224887146048972,0.00225958837625911,4.54402084571299e-05,3.07813379749161e-05
-0.00220502628117956,0.00227512134761341,9.28933163855622e-05,4.32384183669393e-05
-0.0021753670081715,0.00227161659429172,0.000119740257732406,3.68482821790539e-05
-0.00218878997497499,0.002249467506973,9.99675912378925e-05,1.8911311140143e-05
-0.00225281728820904,0.00223082317297597,3.67692949663503e-05,1.69009259114393e-06
-0.00233094706123752,0.00222257388964736,-4.1811428361183e-05,-9.5596256652334e-06
-0.00239578499768883,0.00221403850400677,-0.000113022248067648,-1.85050276814598e-05
-0.00245661750177249,0.00220139039763155,-0.000175161996326922,-2.7770378950871e-05
-0.00251253858283392,0.0021978021978022,-0.000231351100135649,-3.20628792984612e-05
-0.00254597679054599,0.00220458520678194,-0.000269772015671981,-2.49904640886318e-05
-0.00254451051619712,0.0022221089733904,-0.000268977442882296,-1.01655614271197e-05
-0.00249043717923386,0.00222790254520789,-0.000218341904011413,-2.27745084548566e-07
-0.00239672675113241,0.00222407592678523,-0.000128980885410596,-3.44566017682229e-06
-0.00230152620682276,0.00221629155971358,-2.98977985505479e-05,-1.43431661766839e-05
-0.00221877111308402,0.00220935357864818,4.47731427110604e-05,-1.99103313483735e-05
-0.00218480838446667,0.00221358550867948,7.58748823533896e-05,-1.35175002949848e-05
-0.00218795550989839,0.0022274495498806,7.54327691080667e-05,-1.38176369779534e-07
-0.00218451036122503,0.00223902477258591,7.58113445383149e-05,1.11103757092383e-05
-0.00216015590191817,0.0022441626932718,9.43040903166229e-05,1.55275354112011e-05
-0.0021388889633947,0.00223940624233521,0.000114936517639126,1.29709392692324e-05
-0.00214358580968295,0.00222891582422947,0.000113765183456662,4.45838555503288e-06
-0.00215723527415009,0.00222227586640572,9.36434580472478e-05,-6.42553243529245e-06
-0.00216732038064721,0.0022156597504413,8.07037281149885e-05,-1.11400243768459e-05
-0.00215889228337361,0.0022213460338918,9.21083134192421e-05,-1.96337907687084e-06
-0.00212593091284817,0.0022437096979445,0.000122628214037637,1.83870501624903e-05
-0.00208828461696414,0.00226528658063928,0.000159538655866768,3.77962664745901e-05
-0.00205247414424861,0.00227085365479312,0.000191710235922544,4.7423143289782e-05
-0.00204489243298128,0.00227175964544771,0.000202108459098039,4.91012996522338e-05
-0.00207363379440509,0.00227482332437177,0.00017256545431766,4.82718480224009e-05
-0.00213829291691142,0.00226837410142267,0.000107647311135519,4.51157208816093e-05
-0.00220382226728334,0.00225880159490118,3.95615148483386e-05,3.70450367359816e-05
-0.0022483588605141,0.00225048078599458,-3.92338228060777e-06,2.55286739529901e-05
-0.00227614654756466,0.00223730815871407,-2.6721955165243e-05,1.44425758368294e-05
-0.00229303850490084,0.00222486270814316,-4.7561308181114e-05,3.72224325133088e-06
-0.00230975164829204,0.00221301330405553,-6.65600366466918e-05,-9.89177446066921e-06
-0.0023155213782502,0.00219697965365527,-6.65156759660158e-05,-2.66652649997966e-05
-0.00229618563033257,0.00217738164528499,-4.32451224750198e-05,-4.27738556052422e-05
-0.00226267589704251,0.0021662832597663,-1.54718255446222e-05,-5.45336318164293e-05
-0.00224665416757191,0.00216366065523986,-1.04872121884417e-06,-6.01942269774171e-05
-0.00225745452984896,0.00216109765536175,2.03285210588614e-06,-5.92277609251407e-05
-0.0022502662092606,0.00216636670627396,5.03197546787514e-06,-5.3602265621182e-05
-0.00223846448889163,0.0021738768919633,1.05785074594262e-05,-4.73594442047964e-05
-0.00224466337231775,0.00218198312413592,1.36225401061319e-05,-4.04581920106008e-05
-0.00225235237195208,0.00219295037942829,1.29020033453848e-05,-2.62580247085408e-05
-0.00224590314900298,0.0022182585131084,1.32578063621516e-05,-1.57136069910684e-06
-0.00223714126569875,0.00224584354435465,1.95666448757632e-05,2.33769673979387e-05
-0.00223881019585193,0.00225249542310807,3.30214839856672e-05,3.33653368666877e-05
-0.00221928371305965,0.00224664224664225,5.01233322313656e-05,2.6199842056476e-05
-0.00220099700695258,0.00223590148901352,6.20666936009572e-05,1.4321948377092e-05
-0.00221494449466136,0.00222693694990498,5.96809060204946e-05,8.26042995989247e-06
-0.00223259939149615,0.0022285224335505,4.34665580824225e-05,7.40029932523369e-06
-0.00224852575352941,0.00223071588460898,2.54265629630784e-05,8.57142428952391e-06
-0.00226171030173959,0.00223176492641955,1.70497878796867e-05,1.32092165013197e-05
-0.00226321233887746,0.00224126590736305,1.82632497244423e-05,2.07101761583459e-05
-0.00225974334834476,0.00224642766990827,2.09413706887794e-05,2.37148763357058e-05
-0.00226794494795471,0.00223853601446962,1.92882074877972e-05,1.80204641577573e-05
-0.00227364315233488,0.00223140729852958,1.34607288845069e-05,1.1492399489513e-05
-0.00227816118467815,0.00223706974012075,7.36800711930933e-06,1.50511352517451e-05
-0.0022855283192115,0.00225070728365822,6.88335667584254e-06,2.82230711585121e-05
-0.00227988971947966,0.00226234211101187,1.56283020685572e-05,4.08744392154154e-05
-0.00226414217139138,0.0022680879991107,2.75937766106138e-05,4.6718107686591e-05
-0.00226475013880432,0.00227026952923951,2.81520707532473e-05,4.77258476205145e-05
-0.00229532732339664,0.00226978077112322,7.70581017062958e-06,4.61223409446759e-05
-0.00232864632181205,0.00226180566917692,-2.98291661256095e-05,3.9043867240447e-05
-0.00237302794295716,0.00224486602812207,-7.73389342381581e-05,2.24925385341434e-05
-0.00244115605599618,0.0022202373874329,-0.000136720173947779,-3.66655233005409e-06
-0.00251568570826564,0.00218964828191091,-0.000211024217851602,-3.54832068649362e-05
-0.00259069219772173,0.00215700877648644,-0.000288678509421797,-6.70463139962158e-05
-0.00265342012962223,0.0021297694522005,-0.00034844687907704,-9.35563035348609e-05
-0.00268507019788445,0.00211150658795277,-0.000380800543799599,-0.000114902891987054
-0.00270189062964264,0.00209201586794948,-0.000392102772459507,-0.000134152383767328
-0.00269079224412395,0.0020757795617449,-0.000383702599832917,-0.000148693682064076
-0.00264221445573654,0.0020815016079844,-0.000339069909441641,-0.000145503923025899
-0.00255335584600901,0.00211538089009409,-0.000241937345790883,-0.000111733648152892
-0.00241317763407097,0.00217549813839782,-0.000102613720572555,-5.07062031685651e-05
-0.00226439251091436,0.00224583162342498,4.20422797803248e-05,1.72763337907891e-05
-0.00215308679062645,0.00229892744415566,0.000154200028203632,7.0729051803795e-05
-0.00209413779342996,0.0023262025312306,0.00021770580052073,9.98973762448185e-05
-0.0020704747480437,0.00233632340051671,0.000240477478135056,0.000105597662792084
-0.00206508648783484,0.00232310308951754,0.00024216533668082,9.35973802907371e-05
-0.00206729185982298,0.00230209841144671,0.000239010961468677,7.38868817475397e-05
-0.0020807744312748,0.00228799595165229,0.000234288713663554,5.87603133645294e-05
-0.00208911908204073,0.00228623165406177,0.000219852400239969,5.38226739830169e-05
-0.00211710942489561,0.00228236927285011,0.000187489237705266,5.19025448220025e-05
-0.00217136157580385,0.00227035297574717,0.00013967048148082,4.14382262900645e-05
-0.00222175134550043,0.00225350870212964,9.04587539353185e-05,2.13998869792151e-05
-0.00224920524652035,0.00223705781919109,5.77083659775751e-05,3.75918066491347e-06
-0.00225312723238034,0.0022311927217956,5.2967738973758e-05,2.06463151058247e-07
-0.00223711742383942,0.00224043144228646,7.40355075259467e-05,1.00717105827222e-05
-0.00220487130909391,0.00225753797635662,0.000105391621922989,2.29991549632952e-05
-0.00217680944066104,0.00226331962724445,0.000129315047747381,3.00024122786683e-05
-0.00216820252944246,0.00225977911113376,0.00013881706318607,2.8806468653025e-05
-0.00217347158035467,0.00225471271602587,0.000137911600512004,2.10354161818903e-05
-0.00217750085458165,0.00224376930259283,0.000130222740793228,9.15825910527062e-06
-0.00219423783983218,0.00222895158701846,0.000113137020857235,-3.44786513805148e-06
-0.00222413553143355,0.00222046388509654,8.42667279828203e-05,-1.34099532346002e-05
-0.00226219905985588,0.00221396697842878,4.65551829294566e-05,-2.01862064217794e-05
-0.00230665220657898,0.00220785154151032,3.33587513024762e-06,-2.59770260259721e-05
-0.00235300078111892,0.00220162881622486,-4.5309400341998e-05,-3.20977412383245e-05
-0.00240459456471172,0.00219697965365527,-9.70615076515047e-05,-3.78739534478248e-05
-0.00245610490179687,0.00219043506326884,-0.000145112841082235,-4.34882647698419e-05
-0.00249739900215858,0.00218361629150011,-0.000186512951278853,-4.99895274371167e-05
-0.00253071800057399,0.00218024266840474,-0.000224155435916556,-5.47081369324553e-05
-0.00256197467815725,0.00218390239381208,-0.000251786215587072,-5.10511721432568e-05
-0.00255970970152078,0.00219615710950834,-0.00024588633526009,-3.64569595563232e-05
-0.0024949671325068,0.00221823467124907,-0.000187452704314179,-1.70721575994604e-05
-0.00240086331372638,0.00223413719142301,-8.98241238516412e-05,-4.02772850484321e-07
-0.00230406536484154,0.00224627269782261,8.83748322823164e-06,1.3213133442996e-05
-0.00222896350794813,0.00226182951103625,8.13971899141335e-05,2.66088585374755e-05
-0.00218454612401403,0.00227028145016917,0.00012807471550627,3.67978558601694e-05
-0.00215435040917101,0.00227073444549647,0.00015751616685441,3.7533557051738e-05
-0.00214358580968295,0.00226489318996031,0.000168683812961733,2.96512889365924e-05
-0.00215382588826572,0.00225428356255791,0.000159353461986238,2.10554263661294e-05
-0.00217317355711302,0.00224847806981075,0.000139622371640871,1.60604025244643e-05
-0.00218832505871803,0.0022467972187279,0.000124931807626975,1.24338900614314e-05
-0.00219184173296939,0.00224391235374882,0.000120488419842127,1.01533771961402e-05
-0.00219447625842549,0.00224674953500924,0.000119297935058903,1.44103741940394e-05
-0.002203834188213,0.00225875391118252,0.000110043260408666,2.6179058127903e-05
-0.00223022712649269,0.00227059139434048,8.19026694376248e-05,3.72522291890161e-05
-0.00228258384958409,0.00227230800821233,2.9822347474843e-05,3.95459431379431e-05
-0.00235135569282506,0.00226566805038858,-3.70932996697794e-05,3.3250012421537e-05
-0.00240997090399092,0.00225253118589706,-9.88407272335403e-05,2.12033662728036e-05
-0.00245630755760119,0.0022345901867503,-0.000143616661729026,2.28591033526085e-06
-0.00248765960262177,0.00221000922977979,-0.000177382972299842,-2.27129697593723e-05
-0.00251925006623567,0.00218704951924381,-0.000207662756496687,-4.46938635310962e-05
-0.00253733411653841,0.00217486632912554,-0.000226852684754938,-5.46509007159141e-05
-0.00253090873544864,0.00217667831043472,-0.000222179648012979,-5.53174923471948e-05
-0.00250283494608611,0.00217716706855101,-0.000194262031344016,-5.60932639276677e-05
-0.0024587632691123,0.00217072976653157,-0.000152886138579446,-5.85989341173862e-05
-0.00241123452253547,0.00217224372459911,-0.000101162653896698,-5.59428824200534e-05
-0.00234314217228545,0.00218875421218599,-3.9641474657787e-05,-4.5341681197093e-05
-0.0022825123240061,0.00219798101174718,1.79938865895173e-05,-3.23482851493389e-05
-0.00225540412994648,0.00220607532299014,5.1651595654505e-05,-2.16375715838497e-05
-0.00224444879558377,0.00221828235496773,5.85066725631524e-05,-1.22193266316374e-05
-0.0022395492934912,0.00222679389874899,5.43911069976625e-05,-3.97038433119564e-06
-0.00224996818601895,0.00223034633578934,5.01896022283263e-05,-2.9552337207991e-07
-0.00225707306009966,0.00222735418244327,4.36391203808727e-05,6.9713342208097e-08
-0.00225527299972016,0.0022350074192886,3.77804953122621e-05,6.38202403103625e-06
-0.00224233879103296,0.00225673927406903,4.76925827962029e-05,2.4503326828958e-05
-0.00221703065735284,0.00227518095226174,7.78822208755495e-05,4.69841063613294e-05
-0.00218433154728005,0.00228768600748098,0.000107877577758692,6.1102740159164e-05
-0.00217267287806707,0.00229374183975111,0.000113663444620474,6.36451648719307e-05
-0.00219014896095687,0.00229104770964668,9.36416361412784e-05,6.12044775089826e-05
-0.00222715152663896,0.00228583826338281,6.21027734603024e-05,5.82252708442661e-05
-0.00225697769266234,0.00228015197993231,2.71574620538062e-05,5.26069291340619e-05
-0.00229077352826437,0.00227180732916637,-1.16707751549858e-05,4.33252001904393e-05
-0.00233258022860171,0.00226398719930572,-5.26393227911679e-05,3.43764195204005e-05
-0.00237435116615004,0.00225505842298617,-9.39603344268297e-05,2.77101314034468e-05
-0.00242069974068998,0.00224552167925368,-0.000141139880647481,1.83956072126633e-05
-0.00246886029653909,0.00223051322880466,-0.000195658327422079,2.16282115632999e-06
-0.00251106038755538,0.00221240533664258,-0.000238216218228319,-1.62171950941465e-05
-0.0025188924383457,0.00219910157913575,-0.000240401435393174,-2.85435055632702e-05
-0.00246971860347501,0.00219172252367273,-0.00019742777488161,-3.54495807887639e-05
-0.00240569129024096,0.00218096984511434,-0.000136966536942752,-4.58092082723814e-05
-0.00236101164585421,0.0021669746736869,-8.95988455080292e-05,-6.25736462707965e-05
-0.00233273520068736,0.00215247882321351,-5.89853746484819e-05,-7.56426496643557e-05
-0.00229479088156169,0.00215189469765989,-2.63093484320795e-05,-7.25302084856882e-05
-0.0022453071025197,0.00217751277551131,2.40304906713548e-05,-5.15384449121677e-05
-0.00217597497558445,0.00220949662980417,9.14220528652135e-05,-2.01475706392256e-05
-0.00210651171842287,0.00224053873065345,0.000167412627281554,1.51183950538313e-05
-0.00202322018284918,0.0022772075103049,0.000246033114670916,5.04660703956762e-05
-0.00194667589346623,0.00230789198326421,0.000319729248084571,7.87788281654508e-05
-0.00190402280712264,0.00231809629905798,0.000368774539562897,9.03008089359135e-05
-0.001907467955796,0.00230900062972311,0.000366190515058549,8.18746844402812e-05
-0.00196567785535323,0.00228678001682639,0.00030337277449388,6.04046759249193e-05
-0.00206688654821435,0.00226358188769709,0.000208404542478272,3.48001191284562e-05
-0.002146864065341,0.00223740352615139,0.000126233103026743,8.55662172767452e-06
-0.00220001949072,0.00220857871821992,7.57827699724717e-05,-1.79463807254969e-05
-0.00224354280492918,0.00218341363569579,3.65266394972996e-05,-4.30044774537872e-05
-0.00229470743505403,0.00216465009240211,-1.66384184726678e-05,-6.54209432342593e-05
-0.00235440745081946,0.00214203608882642,-7.7362949146838e-05,-8.71203437284484e-05
-0.00240517869026534,0.00211544049474242,-0.000118384292249238,-0.000109002681803008
-0.00241520419211413,0.00210429442550507,-0.000127874197790544,-0.00012537440858864
-0.00240139975556134,0.0021043182673644,-0.00011763503213995,-0.000126276556720621
-0.00238521113307542,0.00212072146658429,-9.88613458267012e-05,-0.000105567970504308
-0.00236721052928034,0.00216214669717233,-6.9535286406291e-05,-6.56436254298867e-05
-0.00232703699630719,0.00221440805282641,-3.0145914924163e-05,-1.61062419439729e-05
-0.00228531374247752,0.00225964798090744,4.85123561423137e-06,3.04071003563903e-05
-0.00227776779399918,0.00229147686311465,2.12972771436428e-05,6.37169424655869e-05
-0.00228909267718152,0.00230962051806572,2.14880246924097e-05,8.10996229005052e-05
-0.00228618397034311,0.00231872810833026,1.74367895667216e-05,8.66673309972721e-05
-0.00228583826338281,0.00231336368998073,1.49561739873317e-05,8.46182776821454e-05
-0.00230232490911036,0.00230298056024197,1.20530358409671e-05,7.50607535415854e-05
-0.00231269611791945,0.00229021324457009,6.74522568715985e-06,5.81348814558582e-05
-0.00231435312714297,0.00227017416180218,-2.31909147601448e-06,3.90820213912174e-05
-0.00233403458202091,0.00225409282768326,-1.85496933156685e-05,2.5383868420976e-05
-0.00236668600837505,0.00225139869757883,-4.09492530855837e-05,2.02556543380999e-05
-0.00238294615643896,0.00225472463695554,-5.64960145807398e-05,2.22116036550992e-05
-0.00237461342660269,0.0022600771343754,-4.89182267753955e-05,2.9491945163556e-05
-0.0023437143769094,0.00227240337564965,-1.78432719722091e-05,4.07033993509698e-05
-0.00231683268051342,0.00228320373792671,1.72810030895832e-05,5.13459711184767e-05
-0.00230191959750173,0.00228678001682639,3.56646199962749e-05,5.41052364477585e-05
-0.00230108513242514,0.00227804197538149,3.30058051656272e-05,4.47457215029737e-05
-0.00231748833164503,0.00225832475771456,1.86928874802031e-05,2.63126843832184e-05
-0.00233820690740388,0.00223974002836585,2.3217235221749e-06,6.57903442429177e-06
-0.00235674395303392,0.00222644819178868,-1.02021060167251e-05,-8.1116277853686e-06
-0.00235608830190231,0.00221730483873515,-1.31097178019425e-05,-1.68876016515555e-05
-0.00234576477681188,0.00220974696932715,-6.36797516832818e-06,-2.35589410255987e-05
-0.00235534920426304,0.00220263017431677,-6.15334097327349e-06,-3.20659400337775e-05
-0.00238897814684976,0.00219346297940391,-3.58191041446134e-05,-4.26967425000152e-05
-0.00244154944667515,0.0021813989985823,-9.73274514446576e-05,-5.34245529322053e-05
-0.00250737682028871,0.0021715880734675,-0.00016108593097967,-6.39236321692768e-05
-0.00254865899972075,0.0021605612135268,-0.000195540326001355,-7.50283946071307e-05
-0.00255309358555636,0.00215361131153174,-0.000199004037355586,-8.35299807097642e-05
-0.00253413930738803,0.00215561402771557,-0.000187320811976025,-8.1526260090901e-05
-0.00250759139702269,0.00217190993856847,-0.000157128811788631,-6.39961514158137e-05
-0.00243554129812368,0.00220183147202918,-8.57815023967929e-05,-3.48880134907722e-05
-0.00232976688920062,0.00223585380529486,2.64545146599644e-05,-3.23595264451994e-06
-0.00221343053659383,0.00226253284588652,0.000135963995138251,2.45993426592543e-05
-0.00214983237682774,0.00228277458445874,0.000192837966768703,4.63641922712313e-05
-0.00216637862720362,0.00229841484418004,0.000186737071208849,6.01722929260508e-05
-0.00221081985299706,0.00230327858348361,0.000142875879700797,6.30207862064085e-05
-0.00226085199480367,0.00229059471431939,8.33274456821605e-05,5.24228665027667e-05
-0.00233025564731691,0.00226491703181964,9.34917434369703e-06,2.78671521115972e-05
-0.00243235840990295,0.00223206294966119,-8.1927362065685e-05,-7.48831042372012e-06
-0.00252935901459211,0.0021951319095571,-0.000178636521295765,-4.51011003070385e-05
-0.00258882061176423,0.00216451896217578,-0.000254410604390227,-7.41026952238872e-05
-0.00261985079168384,0.00214898599082148,-0.000282114592553445,-8.85323037590772e-05
-0.00259908453220633,0.00215021384657704,-0.000252339110791234,-8.88557377014453e-05
-0.0025264860705427,0.00216609252489165,-0.000185457130056467,-7.5244781790981e-05
-0.00244661584178304,0.00219230664922635,-0.000117618220484058,-4.56230998424918e-05
-0.00239682211856974,0.00223079933111664,-6.38870275406441e-05,-5.06852473047944e-06
-0.0023433329071601,0.00227049602690315,-2.49147460356047e-06,2.92860919506217e-05
-0.00224095596319175,0.00228155864963285,9.08944639007214e-05,4.18619433495051e-05
-0.00212185395490253,0.00227086557572279,0.000200163953026796,3.55571333230281e-05
-0.002051854255906,0.00226531042249861,0.000278679472348448,2.76745922763621e-05
-0.0020298005360246,0.00226956619438924,0.000301302848195734,2.9774087457918e-05
-0.0020351768753038,0.00227496637552776,0.000287862749231524,3.83715316045748e-05
-0.00204911244208291,0.00227994932412799,0.000270489713557268,4.47332262314401e-05
-0.00206893694811684,0.00228284611003674,0.000254996185820148,4.57900722837458e-05
-0.00209659350494108,0.00228045000317395,0.000225002488424602,4.37962973402623e-05
-0.00214678061883334,0.00227664722661061,0.000172334638409856,4.19041260921044e-05
-0.00220648063459877,0.00227705253821925,0.00010924994750069,4.26468586622071e-05
-0.00226320041794779,0.00228081955199358,5.31338368314692e-05,4.62058904353832e-05
-0.00230736746235892,0.0022825480867951,9.1203864822298e-06,4.87279716907702e-05
-0.00234578861867122,0.00227899564975474,-2.96723633662223e-05,4.62968404130283e-05
-0.00238047852399817,0.00227314247328892,-6.87975886869537e-05,4.042092434107e-05
-0.00241411938751455,0.00226622833408286,-0.000103310219858557,3.47201081710693e-05
-0.00243861689797741,0.00225811018098057,-0.000123979131198105,2.73246507460513e-05
-0.00244462504652888,0.00224466337231775,-0.000130786902474756,1.37939148091147e-05
-0.00244220509780676,0.00222778333591123,-0.000133513448844104,-2.27153542268082e-06
-0.00244454160002122,0.00221772207127345,-0.000135797835612899,-1.0138422337291e-05
-0.00244058385137223,0.00222269309894401,-0.000126040277261384,-6.07165971079096e-06
-0.002405190611195,0.00222919000561178,-9.16047420582212e-05,1.21460319789288e-06
-0.00234385742806538,0.00223014367998503,-3.71135757505376e-05,2.84297942399431e-06
-0.002291214602662,0.00222495807558048,1.94633264254139e-05,1.67512139286801e-07
-0.00225232853009275,0.00222430242444887,6.44601287675587e-05,-1.67422291033266e-06
-0.00221939100142664,0.0022232891454273,9.32214759861477e-05,-3.45710263786034e-06
-0.00220848335078259,0.00221376432262446,0.000101912267284742,-8.63220196706849e-06
-0.0022270680801313,0.0022080661182443,8.70330679875574e-05,-1.55076674572321e-05
-0.00226613296664554,0.00220530046256187,5.27800875253341e-05,-1.95202745487886e-05
-0.00230823769022451,0.00220150960692821,8.84907291882503e-06,-2.02550404945651e-05
-0.002351999423027,0.00220156921157653,-3.85747070487937e-05,-2.03946746264543e-05
-0.00240551247629598,0.00220227254642681,-8.42489653996646e-05,-2.01334430021005e-05
-0.00243774667011182,0.00220299972313641,-0.00011482807623329,-1.79174641940924e-05
-0.00243684067945723,0.00220693362992606,-0.000116092159253378,-1.48026071386244e-05
-0.00241436972703753,0.00220702899736339,-9.15669231876919e-05,-1.32943700576618e-05
-0.00238916888172441,0.00220747007176102,-6.20893887571055e-05,-1.32251446913004e-05
-0.00236982121287711,0.00220857871821992,-4.25118993600961e-05,-1.253183213812e-05
-0.00235732807858754,0.00220893634610989,-2.78605869045797e-05,-1.05362384864785e-05
-0.00233742012604595,0.00221357358774981,-5.89340531045609e-06,-7.56338467453414e-06
-0.00230779661582688,0.00221691144805619,2.53503140287791e-05,-3.93216697091742e-06
-0.00227822078932648,0.00221716178757917,5.56991944287073e-05,-2.37339220257513e-06
-0.00226905359441361,0.00221338285287516,7.04953468904286e-05,-7.86173495118036e-06
-0.00228223814262379,0.0022012354255459,5.86128797119042e-05,-2.07372293759305e-05
-0.00231379284344869,0.00218766940758642,2.35679621376913e-05,-3.30795742292159e-05
-0.00235357298574287,0.002184867989115,-9.42260591067823e-06,-3.66116379022348e-05
-0.0023589374040924,0.0021908999795258,-8.75107028371423e-06,-3.16407514685196e-05
-0.00231413855040899,0.0022004009604693,3.22976932957807e-05,-2.38234418315388e-05
-0.00226032747389838,0.00220710052294138,8.4049228654063e-05,-1.54712520712884e-05
-0.00225027813019026,0.00221705449921218,0.000105468708025541,-5.83479899687722e-06
-0.00227870954744277,0.00223013175905536,7.86684598299038e-05,2.74179848291392e-06
-0.00233080401008153,0.00223151458689657,2.03209501802835e-05,5.96258306642747e-06
-0.00238766684458654,0.00222949994978308,-3.2354229723701e-05,4.19862657305505e-06
-0.00240918412263299,0.00222986949860272,-4.67278743157955e-05,1.85398491655468e-06
-0.00238184943090972,0.00222996486604004,-1.8564842525193e-05,-1.08954201469858e-07
-0.00233593000983775,0.00222272886173301,2.28178579688563e-05,-6.15667932608204e-06
-0.00232025398732746,0.00220991386234247,4.09154540416907e-05,-2.05607645897607e-05
-0.00234125866539828,0.00218840850522569,2.77701498608724e-05,-4.32076769466652e-05
-0.0023622633434691,0.00216560376677536,6.50067330936603e-06,-6.88858110411205e-05
-0.00236430182244192,0.00214848531177552,-7.61427570297492e-07,-8.57213787085116e-05
-0.00235719694836121,0.00215593589281654,7.85500543048445e-06,-7.74802503147911e-05
-0.00234546675357024,0.00220168842087319,2.97943467553371e-05,-3.67008611400915e-05
-0.00230128778822945,0.00226159109244294,7.08693134527394e-05,2.24735510988011e-05
-0.0022369505308241,0.00230811848092785,0.000125677822743974,7.1286723118685e-05
-0.00221213115526027,0.00233079208915186,0.000161337744956072,8.957901146604e-05
-0.00222985757767305,0.0023223878337376,0.000144692541064873,7.92718782385553e-05
-0.00229029669107775,0.00229750885352545,8.1236696627407e-05,5.59132022357597e-05
-0.00236021294356662,0.00227780355678818,7.42516749966225e-06,3.36324535687072e-05
-0.00242192759644554,0.00226566805038858,-5.24407975639035e-05,1.94283900773156e-05
-0.00247862353793523,0.00226041092040604,-0.000100880352624061,1.409169444262e-05
-0.00250918880159788,0.00226020826460172,-0.000140197522948512,1.32507217776682e-05
-0.00252046600106156,0.00226079239015534,-0.000157560549874164,1.10521231762375e-05
-0.0025219441963401,0.00225607170200775,-0.000148691760280107,6.14518647190781e-06
-0.00250796094584232,0.0022509218603922,-0.000136203306138695,1.01534598085011e-06
-0.00250761523888202,0.00224686874430589,-0.000145740664331221,-5.7224064159623e-06
-0.002538240107193,0.00223280204730046,-0.000173674048812256,-2.01887043579353e-05
-0.00256272569672618,0.00221064103905207,-0.000195204363016646,-4.23976043696841e-05
-0.00255968585966145,0.00219447625842549,-0.00019846255483316,-6.00946908205304e-05
-0.00255357042274299,0.00219490541189345,-0.000192599888812225,-5.98558591290104e-05
-0.00254075542335245,0.0022148252853647,-0.000182171989750137,-4.19837851265904e-05
-0.00250641122498579,0.00223635448434082,-0.000151504427848091,-1.90296749558631e-05
-0.00244249120011873,0.0022551537904235,-8.41062710357692e-05,-1.09066693734428e-06
-0.0023417355025849,0.00227127088733142,1.06938581526456e-05,1.23648178929911e-05
-0.00224668993036091,0.00228357328674634,9.99038345282778e-05,2.69063700419977e-05
-0.00219427360262117,0.00230174078355675,0.000154029423611618,4.46836782989583e-05
-0.00218173278461294,0.00232241167559693,0.000167736609695501,6.27778423592895e-05
-0.00218354476592212,0.00233367695413094,0.000156141854020948,7.67107665874719e-05
-0.00219999564886067,0.00234292759555147,0.000136424618352014,8.39441868568991e-05
-0.00222637666621069,0.00234220041884186,0.000114346979217181,8.49039039144045e-05
-0.00224844230702176,0.0023395539724561,8.58957319662029e-05,8.08107495768409e-05
-0.00227892412417675,0.00232878937296804,4.93409374974995e-05,7.05363523115098e-05
-0.00231400742018267,0.00230795158791253,1.3805679313297e-05,5.16759753936711e-05
-0.00233165039608779,0.00228420509601862,-5.84805366019547e-06,2.60998599198545e-05
-0.00232434286620276,0.00225968374369644,-3.00949120331008e-06,1.85459915036994e-06
-0.00230420841599753,0.00224189771663533,1.38344680877384e-05,-1.32628376252016e-05
-0.00228353752395734,0.00223704589826142,3.05407820562468e-05,-1.83526185321366e-05
-0.00226833833863368,0.00224051488879412,4.33833978535802e-05,-1.71563414179604e-05
-0.00224668993036091,0.00224237455382195,6.30337977783297e-05,-1.17579042795074e-05
-0.0022050143602499,0.00224869264654473,0.000100026966049139,-2.86682218149755e-06
-0.00215343249758676,0.00226196064126257,0.000146591992706055,5.2277936065987e-06
-0.00212305796879875,0.00225809826005091,0.000176321556071573,5.97102452441084e-06
-0.00213117612190104,0.00224910987908303,0.000165309468489679,-1.62386787136017e-06
-0.00217874063126687,0.0022402764702008,0.000113765062572001,-1.07667291695805e-05
-0.00224193347942433,0.00223692668896477,4.48672775765995e-05,-1.50990169888409e-05
-0.00230339779278027,0.00223252786591815,-1.68768093794229e-05,-1.64015117771262e-05
-0.00234768404648805,0.00222616208947671,-6.25478029657641e-05,-2.14198707481457e-05
-0.00237393393361175,0.00221545709463698,-9.46182950623493e-05,-3.24674836696933e-05
-0.00238826289106982,0.00220471633700826,-0.000113069547694624,-4.36538069672261e-05
-0.00238701119345493,0.00219923270936207,-0.000112255503486996,-4.63343027188535e-05
-0.00236520781309651,0.00220588458811549,-9.05125612045734e-05,-3.72622552791542e-05
-0.00232493891268604,0.00222407592678523,-5.79523212608749e-05,-2.18240659955483e-05
-0.00229911817903031,0.00223454250303164,-3.30379950638385e-05,-9.99926857242092e-06
-0.00229531540246698,0.00223182453106788,-3.14190583097942e-05,-8.53346759082531e-06
-0.00231949104782886,0.00222562564764176,-5.48997212833452e-05,-1.61217375535339e-05
-0.00234923376734458,0.00221632732250257,-8.85396056238031e-05,-2.59548508156057e-05
-0.00236494555264387,0.002207648885706,-0.000111825627066459,-3.23758656840443e-05
-0.00237514986843764,0.00220334543009671,-0.000116551244959288,-3.41587405963919e-05
-0.00236915364081583,0.00220735086246436,-0.000110119447082156,-3.21514411972056e-05
-0.00234643234887316,0.00221247686222058,-9.74255121647309e-05,-2.64926579996076e-05
-0.00231790556418333,0.00221765054569546,-6.80529364382712e-05,-1.7577969140594e-05
-0.00226880325489064,0.00222907079631512,-1.41402183713885e-05,-7.9316867914456e-06
-0.00220702899736339,0.00223581804250586,4.35561156058347e-05,-6.25665798345017e-07
-0.00217953933355447,0.00223861946097728,6.69354208004301e-05,4.07184476248231e-06
-0.0022027613045431,0.00224292291658657,4.45897167999075e-05,8.51397437456619e-06
-0.00224118246085539,0.00224795354890546,9.21490776215017e-06,1.34086492398573e-05
-0.00224910987908303,0.00224910987908303,5.0464659766415e-08,1.52249393218118e-05
-0.0022250892058068,0.00224117053992573,2.02115529557101e-05,9.61643909125748e-06
-0.00220168842087319,0.00223151458689657,4.50637246403518e-05,-2.71318148451883e-06
-0.00218867076567833,0.00221647037365856,6.13658418253484e-05,-1.53569205041403e-05
-0.00217537892910116,0.00220905555540654,7.6497075416573e-05,-2.23537144016993e-05
-0.00215351594409442,0.00220776809500266,9.16395277158065e-05,-2.35482160487572e-05
-0.00215910686010759,0.00220963968096016,8.98957200505654e-05,-2.21677219037803e-05
-0.00219606174207102,0.00221277488546222,6.06675106473191e-05,-1.85759552758608e-05
-0.00223180068920855,0.00221892608516968,2.03188921892798e-05,-9.9178456237287e-06
-0.00225455774394022,0.00223488820999194,-3.87276974918766e-06,3.89001029026398e-06
-0.00225847972980021,0.00224969400463665,-2.04731243142e-06,1.80400377489631e-05
-0.00224643959083793,0.00225712074381833,1.56116421886479e-05,2.88552102247728e-05
-0.00222119106180615,0.00226712240380778,3.65291635981056e-05,3.80117378025243e-05
-0.00220545543464753,0.00227780355678818,5.38798049046817e-05,4.68862426862314e-05
-0.00220512164861689,0.00227971090553468,6.13206551021473e-05,5.00491259879732e-05
-0.00221533788534033,0.00226824297119635,5.30342606263099e-05,4.05899245725602e-05
-0.00223654521921547,0.00225002779066728,3.15536802577906e-05,2.11237641767086e-05
-0.00226327194352579,0.00223371995888471,7.39956426594652e-06,2.94156147245008e-06
-0.00228846086790924,0.00222072614554919,-1.20731232894949e-05,-7.10665913760968e-06
-0.00230811848092785,0.00221443189468574,-2.84774838026805e-05,-1.28273791714201e-05
-0.00232530846150568,0.00221027149023244,-4.56639765397997e-05,-1.94012871247444e-05
-0.00234624161399851,0.00220468057421926,-6.22328709192093e-05,-2.43444125857877e-05
-0.00236113085515087,0.00220422757889197,-7.24886525790252e-05,-2.26618581515505e-05
-0.00236248984113275,0.00221208347154161,-7.03376714087059e-05,-1.58149274949786e-05
-0.00234470381407164,0.00221980823396493,-5.08508621822098e-05,-8.66999546816207e-06
-0.00231195702028018,0.00222777141498157,-1.3959408353647e-05,-6.03434837741664e-07
-0.0022730471058516,0.00223858369818829,2.92412234070317e-05,1.24424489038778e-05
-0.00224773897217148,0.00225509418577517,5.89028115278424e-05,2.77189945287627e-05
-0.00224567665133933,0.00226407064581338,6.23050924839953e-05,3.56041146973889e-05
-0.00226721777124511,0.00225821746934756,4.66421435529804e-05,3.18595598895476e-05
-0.00228574289594548,0.00224951519069166,3.05050750746957e-05,2.34683545739871e-05
-0.00229736580236946,0.00224605812108863,2.306518110618e-05,1.91731414076157e-05
-0.00230698599260962,0.00224702371639155,1.83584531746649e-05,1.96347955946624e-05
-0.00231539024802388,0.00224559320483167,1.15956527288612e-05,2.06470061471637e-05
-0.00231825127114363,0.00224660648385325,1.23031505378696e-05,2.1033576484049e-05
-0.0023033858718506,0.0022487403302634,3.3292596245417e-05,2.21365278579173e-05
-0.00226856483629732,0.00224776281403081,7.047950543238e-05,2.27573742614909e-05
-0.00223728431685473,0.00224486602812207,0.000102921401541596,2.00942976169513e-05
-0.00223369611702538,0.00223866714469595,0.000113327791426001,1.41018817707355e-05
-0.00224704755825088,0.00223169340084156,0.000101191697661094,6.40503750044881e-06
-0.00227721943123456,0.0022202016246439,7.51383842768842e-05,-3.51564626187936e-06
-0.00231484188525926,0.00220775617407299,4.17242952142079e-05,-1.63145566702466e-05
-0.0023497821301092,0.00219515575141643,5.84851517348941e-06,-2.81382411074126e-05
-0.00238872780732678,0.00219033969583152,-2.71450495109062e-05,-3.31156529120641e-05
-0.00242482438235428,0.00219391597473121,-5.78557669899466e-05,-3.04676412765042e-05
-0.0024595262086109,0.00219575179789971,-9.43654976332199e-05,-2.49136370380202e-05
-0.00250344291349905,0.00220260633245744,-0.000137262321165934,-2.04415853861355e-05
-0.00254123226053907,0.00220600379741214,-0.000168121157021208,-1.80879057761119e-05
-0.0025446535673531,0.00220166457901386,-0.000165932491263971,-1.87431759926206e-05
-0.00250575557385418,0.00219862474194913,-0.000134509359145946,-2.18199886409979e-05
-0.00247441544976327,0.00220313085336273,-0.000100741393829542,-2.12109005783723e-05
-0.00247018351973197,0.00220973504839748,-8.32385946037958e-05,-1.07133297935725e-05
-0.00245944276210325,0.00222297920125599,-7.55498095770944e-05,3.77764834041054e-06
-0.00243886723750038,0.00222836746146485,-6.5760315413707e-05,5.79169175126449e-06
-0.00244486346512219,0.00220928205307019,-5.88529637267421e-05,-1.1946481248409e-05
-0.00246177926431771,0.00218396199846041,-6.70900804221707e-05,-3.5407521350129e-05
-0.0024679185430955,0.00217576039885046,-8.57152813681116e-05,-4.43925073985401e-05
-0.00247185244988516,0.00218606008208156,-9.22342867710898e-05,-3.55494200668428e-05
-0.00246474757580445,0.00219790948616919,-6.93969397308574e-05,-2.19968068792557e-05
-0.00241609826183905,0.00220651639738777,-2.05354861138426e-05,-1.28615648982948e-05
-0.00234385742806538,0.00221736444338348,3.56737090267795e-05,-3.52011119832371e-06
-0.00231202854585818,0.00223269475893347,7.73482020389763e-05,1.25313278659464e-05
-0.00230820192743551,0.00225144638129749,9.00087313948919e-05,3.15086977984387e-05
-0.00231273188070845,0.00226473821787466,7.73633828293633e-05,4.40244354507994e-05
-0.00232232822908927,0.00226615680850487,6.23401977949042e-05,4.64627863991996e-05
-0.00232566608939565,0.00226318849701813,6.64321223344113e-05,4.27513347251501e-05
-0.00231121792264092,0.00225976719020409,8.50084767768982e-05,3.77297832722615e-05
-0.00229666246751919,0.00225178016732813,9.15233919713832e-05,3.24868915201476e-05
-0.00231953873154752,0.0022452355769417,6.78239702213141e-05,2.465234745754e-05
-0.00237008347332975,0.00223443521466465,2.11412776379374e-05,1.13787073043615e-05
-0.0024215938104149,0.00221490873187236,-2.95989237175828e-05,-6.00236340006556e-06
-0.00246195807826269,0.00220080627207793,-7.10750245474971e-05,-1.95913610250134e-05
-0.00247752681240599,0.00220248712316079,-9.46402604848606e-05,-2.07657951407759e-05
-0.00248229518427224,0.0022133351691565,-9.30664508324092e-05,-9.90673957014042e-06
-0.00246398463630585,0.00222519649417379,-6.98318046284012e-05,3.39775874906243e-06
-0.0024260999218285,0.00223379148446271,-4.25803066081384e-05,1.11623518524991e-05
-0.0024078608994401,0.00223830951680598,-2.63050037454107e-05,1.32976736540549e-05
-0.00241066231791152,0.00223609222388817,-1.98309193149013e-05,1.16517195772727e-05
-0.00240464224843039,0.00222787870334856,-1.69325837284084e-05,4.95760619632292e-06
-0.00239936127658852,0.00222030891301089,-1.88989055190025e-05,-5.52910818300409e-06
-0.00240416541124376,0.00221436036910775,-2.25074697845002e-05,-1.2330861588743e-05
-0.00239487900703424,0.00221354974589048,-8.23148775539888e-06,-1.14587077924017e-05
-0.00234766020462872,0.00221582664345662,3.76774478805893e-05,-1.07206232275362e-05
-0.00228110565430556,0.00220907939726587,9.5513790025992e-05,-1.88991768378594e-05
-0.00224813236285045,0.0021977306722242,0.000130992806804557,-3.00180112852267e-05
-0.00224531902344936,0.00219829095591849,0.000141078845020212,-2.96580636450045e-05
-0.00222511304766613,0.00221287025289954,0.000154894216809167,-1.63858785316065e-05
-0.00218811048198405,0.0022247434988465,0.000184183360267941,-4.79949290541125e-06
-0.00217961085913246,0.00222578061972741,0.000200816730712332,-4.60067908450675e-06
-0.00220626605786479,0.00222198976409374,0.000176821118383508,-8.50902636778705e-06
-0.00225197090220278,0.00222437395002687,0.000121575253205544,-6.83471616891166e-06
-0.00231232656909982,0.00222934497769743,6.01483525761467e-05,-3.28626162895419e-06
-0.00238087191467714,0.00222481502442449,-2.11946732952168e-06,-7.0023683872781e-06
-0.00244554295811313,0.00221668495039254,-6.61989629409462e-05,-1.64458806522864e-05
-0.00247724071009402,0.00221273912267322,-0.000107848604868341,-2.18492099942357e-05
-0.00246557011995137,0.00221372855983547,-9.52652800754975e-05,-1.93225246836104e-05
-0.00241673007111133,0.00222238315477271,-3.63009099649627e-05,-1.24387927053028e-05
-0.00234912647897759,0.00223392261468903,2.2490221400842e-05,-2.81948418078857e-06
-0.0023170472572474,0.00224436534907611,4.84654578814916e-05,1.0357512607162e-05
-0.00232447399642909,0.00225952877161078,4.98015488637135e-05,2.29279012581711e-05
-0.00232751383349382,0.00226653827825417,4.60285392744702e-05,2.88555254439481e-05
-0.0023258568242703,0.00226775421308006,3.94830490795107e-05,3.14417585199496e-05
-0.00234186663281123,0.00227775587306952,2.73516305227674e-05,4.0438234630327e-05
-0.00235151066491071,0.00229330076535349,1.67805030248828e-05,5.51189397810787e-05
-0.00235778107391483,0.0022996069371466,9.91391713397901e-06,6.07939043073106e-05
-0.00237445845451703,0.00228505148202488,-7.67796072374193e-06,4.74208387258736e-05
-0.00240787282036977,0.00226120962269364,-4.48767956911634e-05,2.24537380804584e-05
-0.00245101466482965,0.00223855985632896,-8.67082323101309e-05,-1.60156622607152e-06
-0.00248403564000342,0.0022144438156154,-0.000118124769598321,-2.39343151895175e-05
-0.00251390948974547,0.00218874229125633,-0.000151691704497531,-5.03606079394281e-05
-0.00256298795717883,0.00216288579481159,-0.000205760995668226,-7.75384000983717e-05
-0.0026245118751831,0.00214623225606872,-0.000262648126309196,-9.34775766236116e-05
-0.00263918653960148,0.00214639914908404,-0.000276769310252922,-9.18887445741576e-05
-0.0025803686726313,0.00216505540401074,-0.000225854388626639,-7.61328462168473e-05
-0.00248487010508001,0.00218988670050423,-0.000130575885084293,-4.95913367121553e-05
-0.0023790480124383,0.0022262693778437,-2.16148679776712e-05,-1.26769197841538e-05
-0.00227096094316011,0.00226784958051739,8.52766076348809e-05,2.82268287959646e-05
-0.00217710746390268,0.00229860557905469,0.000172154015443286,5.86431690507089e-05
-0.00214134467490582,0.00230820192743551,0.000206485122326688,6.88891023702085e-05
-0.00218280566828285,0.00230132355101845,0.000171563049847305,6.38846896718738e-05
-0.00225187553476545,0.00229566110942728,9.6205817677164e-05,5.55426761062756e-05
-0.00231236233188881,0.00228842510512025,3.05092659806556e-05,4.99955512391892e-05
-0.00234589590703821,0.00228415741229996,-2.77905768457495e-06,4.68288476973259e-05
-0.00236237063183609,0.00228344215652002,-1.45352239879319e-05,4.59702509554845e-05
-0.00235615982748031,0.00228645815172542,-1.52665257102727e-05,4.82844726424727e-05
-0.00233730091674929,0.00228755487725466,-1.31586637068346e-06,5.10688639682392e-05
-0.0023148299643296,0.00228540910991485,2.27705130897223e-05,4.93497512002325e-05
-0.00230642570891534,0.00227764858470253,3.41585616184672e-05,4.19259727260111e-05
-0.00231753601536369,0.00226693166893313,1.72547398812336e-05,3.13284181940929e-05
-0.00234417929316636,0.00225260271147506,-1.7477665674894e-05,1.73706151512972e-05
-0.00238727345390758,0.00222901119166679,-5.39043420398487e-05,-4.31308198340206e-06
-0.00242961659607986,0.00219801677453618,-9.47507443634754e-05,-3.5110130684034e-05
-0.00247120871968321,0.00216612828768064,-0.000147570072837361,-6.80208789382275e-05
-0.00251828447093275,0.0021404148423919,-0.000195879868734742,-9.18509364257237e-05
-0.00253618970729051,0.00213093770330773,-0.000207078388044134,-9.91754103270629e-05
-0.00249526515574844,0.00214226258649007,-0.0001700354398268,-8.8905196455021e-05
-0.00242226138247617,0.00216856015733243,-0.000106350423990424,-6.37593427920546e-05
-0.00236017718077762,0.00219858897916013,-3.96522067350541e-05,-2.88393608290811e-05
-0.00229210867238692,0.00223563922856088,2.91234757351789e-05,7.41130309087687e-06
-0.00221087945764538,0.0022642375388287,0.000105797121417738,3.43486691562955e-05
-0.00213658822396923,0.00227160467336206,0.000176515857857009,4.45556812123292e-05
-0.0021001578629111,0.00226429714347703,0.000215185554114722,3.91968661787424e-05
-0.00209884656064788,0.00225410474861292,0.000215432587143434,2.71477063399303e-05
-0.00211036217870487,0.00224295867937557,0.000200704350596139,1.75815265624896e-05
-0.00211398614132322,0.0022369505308241,0.00019719798936097,1.30715349188715e-05
-0.002105045444074,0.00223408950770435,0.000204387671164383,1.01405153278105e-05
-0.00210919392759764,0.00222823633123853,0.0001991807072844,5.52133531479452e-06
-0.00214405072593991,0.00222260965243635,0.000166111279225358,-1.34054772583557e-07
-0.00219122184462677,0.00221707834107151,0.000115497426043253,-4.72125120196679e-06
-0.00223540080996757,0.00221229804827559,6.9323914690868e-05,-8.12729254452244e-06
-0.00227149738499507,0.00220899595075822,3.58984174802785e-05,-1.16829216601673e-05
-0.00230081095104283,0.002203905713791,6.56917368237435e-06,-1.60890196827412e-05
-0.00232838406135941,0.00219745649084189,-2.48501063676539e-05,-2.15583536335296e-05
-0.0023550511810214,0.00219031585397219,-5.14616209038009e-05,-2.8056919624408e-05
-0.00237331404526913,0.00218538058909062,-6.69027919819652e-05,-3.31862557019894e-05
-0.00238367333314856,0.00218535674723129,-7.82729653906921e-05,-3.18224998783235e-05
-0.00239732279761569,0.00219569219325138,-9.43271305931227e-05,-2.12042512110973e-05
-0.0024113298899728,0.00221190465759663,-0.000107940172551871,-5.54499143101908e-06
-0.0024109126574345,0.00222326530356796,-0.000104515786965399,7.57941845896618e-06
-0.00239032521190198,0.00222979797302472,-8.51497195973219e-05,1.49783782320221e-05
-0.00237052454772738,0.00223617567039583,-6.67428452162733e-05,1.90115280607657e-05
-0.0023630620457567,0.00223650945642647,-5.87416027707281e-05,2.18619337011559e-05
-0.00236173882256382,0.00223673595409012,-5.41341910386732e-05,2.28985573409795e-05
-0.002351999423027,0.00223717702848774,-4.49739653254931e-05,2.23854051998128e-05
-0.00233428492154389,0.0022391678237419,-3.07219793477556e-05,2.36642950310403e-05
-0.00231664194563877,0.0022429825212349,-7.33358549161047e-06,2.93982348053712e-05
-0.00227577699874502,0.00225068344179889,3.32209802905099e-05,3.78998537136897e-05
-0.00222362293145793,0.00225933803673613,8.25669009027586e-05,4.46830873113518e-05
-0.00220010293722766,0.00226054205063236,0.000111612623961611,4.58649248189718e-05
-0.00220919860656253,0.0022524835021784,0.000100471200713664,3.94088692243207e-05
-0.00224961055812899,0.00223791612612701,6.02644430502067e-05,2.54684131163796e-05
-0.00230191959750173,0.00222103608972049,1.23024007553856e-05,6.60060716699081e-06
-0.00235224976254998,0.00220125926740523,-4.02691533730599e-05,-1.4224002830863e-05
-0.00241738572224293,0.00217592729186578,-0.000103437274930776,-3.61812179604204e-05
-0.00248378530048044,0.00215362323246141,-0.000168868219797481,-5.91146791053486e-05
-0.00253784671651403,0.00213564647052565,-0.000221482403012783,-8.00804265214333e-05
-0.00257788911926085,0.00212115062005226,-0.000260536049243392,-9.46779494468031e-05
-0.00260694042485597,0.00211027873219721,-0.000288282776123114,-0.000101256508281068
-0.00260162369022511,0.00211484444825914,-0.000284543976710118,-9.9293282221032e-05
-0.00254448667433778,0.00213421595896578,-0.000222805331152918,-8.40220016627599e-05
-0.00243773474918215,0.00216462625054277,-0.000113564102229236,-4.95480769684502e-05
-0.00232144608029402,0.0022134066947345,-2.43160516291772e-06,5.59541227744207e-08
-0.00224003805160749,0.00226570381317757,8.29939535543584e-05,4.86541872540706e-05
-0.00217152846881917,0.00229874863021068,0.000157183528376713,8.09970951970118e-05
-0.002089893942469,0.00230928673203508,0.000235341506317455,9.38793600835483e-05
-0.00202906143838533,0.00230865492276281,0.000295437365496309,9.2552333078049e-05
-0.00202440035488608,0.00230081095104283,0.000304144185404564,8.25757696462488e-05
-0.00206935418065513,0.00228732837959101,0.000263071330131813,6.89062513392807e-05
-0.00212470305709261,0.00227351202210856,0.000204818376575208,5.53741792559575e-05
-0.00217624915696676,0.00225639356710872,0.000152510164748019,3.8417620711377e-05
-0.00222812904287154,0.00222752107545859,0.000105175713242178,8.19220643534999e-06
-0.00227909101719207,0.00218532098444229,5.74625006988811e-05,-3.53170796388663e-05
-0.00232185139190265,0.00214778197692525,1.20883699575495e-05,-7.29336030040177e-05
-0.00235897316688139,0.00213549149844,-2.7622233152092e-05,-8.39878367389767e-05
-0.00239982619284548,0.00215014232099905,-6.07950172728066e-05,-7.05246987957235e-05
-0.00242358460566906,0.00217182649206081,-8.26586310670417e-05,-5.28316101452827e-05
-0.00242209448946085,0.00217907441729751,-8.72660056507677e-05,-4.25044347776563e-05
-0.00241385712706191,0.002188646923819,-7.64529152648994e-05,-3.22305639211812e-05
-0.00239785923945065,0.00221233381106459,-5.50888599070134e-05,-1.29173428735188e-05
-0.00236277594344473,0.00223766578660403,-1.97223932719869e-05,1.25264799724428e-05
-0.00230381502531856,0.00226085199480367,3.45248639460267e-05,3.72057415427021e-05
-0.0022449256327704,0.0022848011425019,9.62395749457199e-05,6.01113607612093e-05
-0.00220469249514893,0.00230665220657898,0.000141058864664164,8.02489965073514e-05
-0.00219100726789279,0.00231697573166941,0.000154964404167516,8.98456091689148e-05
-0.00219746841177156,0.00231024040640833,0.000142244888035319,8.267643524622e-05
-0.00223644985177814,0.00228906883532219,0.000109110032964922,6.39865030870643e-05
-0.0022943021234454,0.00227357162675688,5.40528815214299e-05,4.39840614025179e-05
-0.00236593498980611,0.00225501073926751,-2.01770289196066e-05,2.48183666094252e-05
-0.00244297995823502,0.00222889198237014,-9.85807580305374e-05,8.54051140905812e-07
-0.00251377835951915,0.00219781411873186,-0.00016737420119879,-3.07759527916196e-05
-0.00257747188672256,0.00216598523652466,-0.000226841251540298,-6.5653747981559e-05
-0.00262800470757512,0.00213696969371853,-0.000281408384735103,-9.52060607251557e-05
-0.0026681305568296,0.00212104333168526,-0.000322068003718465,-0.00010897882938571
-0.00267672554711852,0.0021327854474059,-0.000327259115260235,-9.77740704444006e-05
-0.0026290179865967,0.00217238677575509,-0.000280661686415885,-6.23614333445964e-05
-0.00253648773053215,0.00221507562488768,-0.000185836844105656,-1.80451065474323e-05
-0.00241309418756331,0.00224746479078917,-6.69838461672371e-05,1.61050237672975e-05
-0.00230442299273151,0.00226749195262742,4.33278782937898e-05,3.30170472169883e-05
-0.00222958339629074,0.00227426304067749,0.000123413888454924,3.89166096616522e-05
-0.00217458022681357,0.00227545513364405,0.000173399901710295,4.15874546023991e-05
-0.00214188111674077,0.00227848304977912,0.000203880078637497,4.36637920361888e-05
-0.00213522923798735,0.00228170170078884,0.000215422985264363,4.5701200502155e-05
-0.00215191853951922,0.00228223814262379,0.000199154114738369,4.74063731957417e-05
-0.00218774093316441,0.00228149904498452,0.000158704414639233,4.42169651692604e-05
-0.00223027481021135,0.0022661448875752,0.000117194223977808,2.98480459794315e-05
-0.00225683464150635,0.00224093212133241,9.33889356988419e-05,5.5662859218688e-06
-0.00226616872943453,0.002219057215396,8.11843384164147e-05,-1.84303443127649e-05
-0.00228562368664883,0.00220396531843932,6.30840583472636e-05,-3.45672154576423e-05
-0.00231095566218827,0.00219002975166021,3.49432446588867e-05,-4.63901578110603e-05
-0.00234208120954521,0.00217487825005521,4.99745607844619e-06,-6.0889113042318e-05
-0.00237190737556859,0.00216498387843274,-2.33423563062757e-05,-7.51364044029439e-05
-0.00239764466271667,0.00216189635764935,-5.13110618956965e-05,-7.61096171429373e-05
-0.00241638436415102,0.00218111289627033,-7.19161235285528e-05,-5.45562700530689e-05
-0.00242137923368092,0.00222257388964736,-7.63306286490115e-05,-1.62322743823013e-05
-0.00242240443363216,0.00226085199480367,-7.4605604509223e-05,2.16096325072378e-05
-0.00243634000041127,0.00228075994734525,-9.10151393237593e-05,4.37354242134805e-05
-0.00247071996156692,0.0022843839099636,-0.000130891478905017,4.6896855478339e-05
-0.00251303926187988,0.00227664722661061,-0.000167348517733946,3.82211781904329e-05
-0.00251836791744041,0.00226429714347703,-0.000172279520136705,2.59075550546507e-05
-0.00249091401642048,0.00225000394880795,-0.000149011785791313,1.2802498047501e-05
-0.002458417562152,0.00223571075413887,-0.000120725803124045,-1.47472808130683e-06
-0.00243955865142099,0.00222346795937228,-9.50179408714466e-05,-1.49439929392003e-05
-0.00240318789501118,0.0022140623458661,-5.73615014370529e-05,-2.26394882671532e-05
-0.00233442797269988,0.00221583856438628,1.04529854915925e-06,-2.15471771741876e-05
-0.00227261795238363,0.0022224904431397,6.49105057643507e-05,-1.41640125580528e-05
-0.00223507894486659,0.00223044170322667,0.000110395212229773,-6.14338248251405e-06
-0.00220974696932715,0.00223617567039583,0.000129968948626719,-7.28024508306738e-07
-0.00219731343968591,0.00223997844695916,0.000136209222740929,4.53055170930669e-06
-0.00219019664467553,0.00225151790687549,0.000147321103209775,1.55497117628501e-05
-0.0021704436642196,0.00227088941758212,0.00017384597908829,3.49276854471202e-05
-0.00212038768055366,0.00229105963057635,0.000213290880203071,5.6476850148137e-05
-0.00208286059396628,0.00230301632303097,0.000250076964087868,6.83165778843863e-05
-0.00207715046865645,0.00229908241624131,0.000263213260451879,6.36455696899832e-05
-0.00209362519345434,0.00228091491943091,0.000241354532254972,4.75982118014819e-05
-0.00214400304222125,0.00226513160855362,0.000191503768382383,3.15168583097177e-05
-0.0022034169556747,0.00225580944155511,0.000129980694442542,2.18659894063581e-05
-0.00226660980383216,0.00225098146504053,6.67871687385646e-05,1.75234019419966e-05
-0.00233390345179459,0.00224741710707051,3.51901588995397e-06,1.59862278806599e-05
-0.00238947882589572,0.00224975360928497,-5.62809398371494e-05,1.66885720512927e-05
-0.00243401541912648,0.0022498132139333,-0.000104278754967943,1.7327306572529e-05
-0.00247209086847847,0.00224353088399952,-0.000137643633478351,1.25777992877444e-05
-0.00250054612759031,0.00223150266596691,-0.000164536294745011,1.92138418660841e-07
-0.00252379194043827,0.00221626771785424,-0.000194288887793,-1.50300682914492e-05
-0.00255857721320255,0.00220365537426802,-0.000227724931601737,-2.73222128506572e-05
-0.00259532943936166,0.00219240201666367,-0.000261865784046892,-3.74483175024716e-05
-0.00262998358189962,0.00218068374280237,-0.000296262688329386,-4.94753413719337e-05
-0.00265327707846624,0.00216900123173006,-0.00032490489934236,-6.16332468042241e-05
-0.00266014353395364,0.00216279042737427,-0.00032787472982423,-6.6227638547554e-05
-0.00261756197318804,0.00216975225029899,-0.000286153617834491,-5.95862890996208e-05
-0.00253700033050777,0.00218323482175081,-0.000205977509290102,-4.69150691329549e-05
-0.00244689002316535,0.00219385637008288,-0.000114495044264128,-3.47310352110279e-05
-0.00235481276242809,0.00220571769510017,-2.61860004399855e-05,-2.28369923593884e-05
-0.00225789560424659,0.00222225202454639,7.24408727418587e-05,-7.81362978636839e-06
-0.0021403433168139,0.00223724855406574,0.000193733052944292,8.73891640184105e-06
-0.0020153404483402,0.00224901451164571,0.000314870157813671,2.10035042633679e-05
-0.00193778287993567,0.00225684656243602,0.000389239801154451,2.7078786104699e-05
-0.00194250356808326,0.00225970758555577,0.000390908213434325,3.05458152754058e-05
-0.00199732792361545,0.00226075662736634,0.000335705708245241,3.26339958663297e-05
-0.00207092774337099,0.00225715650660732,0.000257375186627127,2.81330169049361e-05
-0.00215489877193563,0.00224289907472724,0.000174978096726951,1.28067257285055e-05
-0.00224316133517989,0.00222105993157982,8.95143508388062e-05,-8.19120090727925e-06
-0.00232915892178767,0.0022045613649226,3.48451503644081e-06,-2.35420935716539e-05
-0.0023972512720377,0.00220479978351592,-6.789821242773e-05,-2.65487276217977e-05
-0.00243721022827686,0.00221025956930277,-0.000107637253518519,-2.00004505736366e-05
-0.00244928613002814,0.00221691144805619,-0.000115374765029666,-1.16901937402895e-05
-0.00244342103263265,0.00222320569891964,-0.000110848592846593,-8.35670073438685e-06
-0.00244455352095088,0.00221958173630129,-0.000116270182427543,-1.27971709911634e-05
-0.00246803775239216,0.00220690978806673,-0.000135252731708653,-2.21852699897372e-05
-0.00248363032839479,0.00220414413238431,-0.000151499474812126,-2.80837398824406e-05
-0.00248020902158076,0.00221176160644064,-0.000147413076123516,-2.20228181229744e-05
-0.00244922652537981,0.00222755683824759,-0.00011876332717405,-3.86519020070545e-06
-0.00240149512299866,0.00224913372094236,-7.12883615832411e-05,1.68364346269984e-05
-0.0023486019580723,0.00226396335744639,-1.32142474930577e-05,2.95188121957968e-05
-0.00228866352371356,0.00226678861777715,4.24141995033087e-05,3.16869500968024e-05
-0.00225152982780515,0.00226155532965394,7.77228406029466e-05,2.86259310125769e-05
-0.00224922908837969,0.00226031555296871,8.52169815317597e-05,2.58515412904903e-05
-0.00225111259526685,0.00226109041339698,7.97693146722782e-05,2.33758423406153e-05
-0.00224958671626965,0.00225220932079609,8.31862145567213e-05,1.64661924295788e-05
-0.00223299278217511,0.00223575843785753,9.68244171463299e-05,8.53708190216569e-07
-0.00223102582878028,0.00221591008996428,0.000100089678481036,-2.21789838844876e-05
-0.00225807441819158,0.00219385637008288,7.68947772156664e-05,-4.51903541321367e-05
-0.0022938848909071,0.00217752469644098,3.36641298187669e-05,-5.97119594577543e-05
-0.00233908905619914,0.00217633260347441,-9.60232644616912e-06,-6.21171294302997e-05
-0.00237059607330537,0.00218600047743323,-3.49467968289288e-05,-5.33944593315286e-05
-0.00235835327853878,0.00220701707643372,-3.13580029495068e-05,-3.41925961097037e-05
-0.0023257852986923,0.00223643793084848,1.9944393453859e-06,-4.11844826075856e-06
-0.00228352560302768,0.00227074636642613,4.92066646272378e-05,3.21684858004338e-05
-0.00224634422340061,0.00230467333225449,8.35685450898975e-05,6.19952214201677e-05
-0.00223444713559432,0.002317810196746,8.9491770859079e-05,7.28682390121428e-05
-0.00225610746479675,0.00230268253700033,7.42236899599173e-05,6.38687665069225e-05
-0.00227674259404794,0.0022885800772059,5.24376471109982e-05,4.57129987147934e-05
-0.00229874863021068,0.00227510942668375,2.6150131669184e-05,2.88627799392527e-05
-0.00233738436325695,0.0022578240786686,-1.19543947527893e-05,1.45530136815264e-05
-0.00238646283069031,0.00224137319573004,-6.02527682862543e-05,-7.68392768029357e-07
-0.0024291516798229,0.0022311569590066,-0.000102955479630747,-1.49574067099717e-05
-0.0024459005860031,0.00222795022892655,-0.000122903150190601,-1.84786540129711e-05
-0.00243663802365291,0.00223959697720986,-0.000114022488736193,-4.40279528181256e-06
-0.00240399851822844,0.00226826681305568,-8.26954885253652e-05,2.2275633949464e-05
-0.00236974968729911,0.00229415907228941,-4.33458644833744e-05,4.76241942563302e-05
-0.0023315431077208,0.00230767740653023,-1.34923663163413e-05,6.03951068768514e-05
-0.00232435478713243,0.00230484022526981,-7.60101173533927e-06,5.88004947485994e-05
-0.00235385908805484,0.00229421867693774,-3.07030043727132e-05,4.69022657198636e-05
-0.00239595189070415,0.00227649225452496,-7.56828911798161e-05,2.85204592769192e-05
-0.00243930831189801,0.00225384248816028,-0.000126607514498233,6.45329002065497e-06
-0.00248329654236415,0.00223190797757554,-0.000167403338926179,-1.59815654145282e-05
-0.00251069083873575,0.00221276296453255,-0.000189928003988064,-3.63883473870473e-05
-0.00250464692739528,0.00219292653756896,-0.00019170041820566,-5.44238503863933e-05
-0.00247620358921311,0.00218055261257604,-0.000164894055026519,-6.80551412006343e-05
-0.00241024508537323,0.00217937244053915,-9.66738987667199e-05,-7.08208498515724e-05
-0.00230692638796129,0.00219075692836982,8.9973928111918e-06,-5.77687712025825e-05
-0.00219403518402786,0.00221443189468574,0.00011574998295612,-3.33435762615596e-05
-0.00212953103360719,0.00224243415847028,0.000178179574503672,-8.11413919112912e-06
-0.00212854159644494,0.00226286663191716,0.000184291230276154,1.2320821514555e-05
-0.00214942706521911,0.00227746977075754,0.000161392964407726,2.93688015751454e-05
-0.00217021716655595,0.00229071392361605,0.000136589106671664,4.18147711455526e-05
-0.0021993280767994,0.00229352726301713,0.00010787945008017,4.17572000013813e-05
-0.00224690450709489,0.00227462066856746,6.24701167802137e-05,2.44145706425507e-05
-0.00230269445793,0.00224422229792013,5.82956889389363e-06,-3.52147783472783e-06
-0.0023498178928982,0.00222052348974487,-4.4199321410467e-05,-3.04457442206217e-05
-0.00238512768656776,0.00220055593255496,-8.07269444612439e-05,-5.06467903416438e-05
-0.0024169804106343,0.00218659652391651,-0.000105997225334053,-6.3445351560674e-05
-0.00241725459201661,0.00218288911479051,-0.000112158895153407,-6.57508525360627e-05
-0.00238770260737554,0.00219779027687253,-8.41465162355771e-05,-5.29470929972477e-05
-0.00233263983325004,0.00222582830344607,-2.29957686032357e-05,-2.64939938328072e-05
-0.00225670351128003,0.00225354446491864,4.9637444486906e-05,5.05220149454278e-06
-0.00219264043525698,0.00228221430076446,0.000113296186591926,3.26059634608384e-05
-0.00214476598171985,0.00230181230913474,0.000161902459743915,5.01632430905942e-05
-0.00211744321092625,0.00230454220202817,0.000192240663587215,5.37212475947696e-05
-0.00211422455991653,0.00229154838869264,0.000193970435995337,4.29014301971988e-05
-0.0021457196560931,0.00227458490577846,0.000160876843103746,2.41593058545502e-05
-0.00220595611369348,0.00225819362748823,0.000105380075457732,7.01747494918151e-06
-0.00225904001349449,0.00224518789322304,5.35529197442982e-05,-4.39049613331823e-06
-0.00228282226817741,0.00223689092617577,2.60206622690368e-05,-1.25372468317495e-05
-0.00228869928650256,0.00223079933111664,2.40622720591079e-05,-1.96517989531012e-05
-0.00228451504018992,0.00222457660583118,3.05604593942357e-05,-2.4792544291554e-05
-0.00229234709098024,0.00222175134550043,2.49724199614745e-05,-2.82360085115797e-05
-0.00230981125294037,0.00221706642014184,2.59637916971549e-06,-3.26982017954292e-05
-0.00234036459567336,0.00221030725302143,-2.13450548043002e-05,-3.74268694927708e-05
-0.00235399021828116,0.00221453918305273,-3.13881284824352e-05,-3.58023794921634e-05
-0.00235190405558968,0.00222728265686528,-3.16138928668387e-05,-2.25243823184678e-05
-0.00235687508326024,0.00224595083272164,-3.64806038812976e-05,-5.46706554293067e-07
-0.00237174048255327,0.00227049602690315,-4.54673485273917e-05,2.16694144170566e-05
-0.00237165703604561,0.002287399905169,-4.2036852767941e-05,3.74659327687815e-05
-0.00234731449766841,0.00229151262590364,-2.07383813778695e-05,4.50305519134944e-05
-0.00232882513575704,0.0022931577141975,8.18995744388519e-11,4.64955982091632e-05
-0.00233438028898122,0.00229467167226503,4.86564006151848e-07,4.62530681640774e-05
-0.00235472931592043,0.00229446901646072,-1.73224744304284e-05,4.70622730717757e-05
-0.00237382664524476,0.00229051126781173,-4.04821144622988e-05,4.55466829208289e-05
-0.00240739598318314,0.00228104604965723,-6.76960636176669e-05,3.49691012526312e-05
-0.00244870200447452,0.00226244939937886,-0.000105496857380061,1.53063208448776e-05
-0.00249044910016353,0.00224070562366877,-0.000146686358128512,-3.21204360292174e-06
-0.00251449361529908,0.00223422063793067,-0.000169523792578431,-1.09944512331308e-05
-0.00250880733184858,0.00223299278217511,-0.000160924504761603,-1.08727419344492e-05
-0.00247948184487115,0.00222991718232138,-0.000128918658844669,-1.38206489240472e-05
-0.00244413628841259,0.00222091688042384,-8.98385084302738e-05,-2.39161926416873e-05
-0.00240772976921378,0.00220780385779165,-5.43391556597556e-05,-3.28039529451058e-05
-0.00238474621681846,0.00221245302036125,-2.9112978658414e-05,-3.00392763096611e-05
-0.00237884535663398,0.00222839130332418,-1.87951068328103e-05,-1.50292987725803e-05
-0.00237853541246268,0.00224303020495356,-1.64141764818261e-05,2.95163269869702e-06
-0.00236346735736533,0.00225344909748132,-1.58548110319876e-06,1.39056032448652e-05
-0.00232480778245972,0.00225547565552447,3.8069587329298e-05,1.43503209531492e-05
-0.00228153480777352,0.00224722637219586,8.65314938311989e-05,7.26913882603469e-06
-0.0022567154322097,0.00223563922856088,0.000112883542036609,-2.3366512529735e-06
-0.00226196064126257,0.00222704423827197,0.000106599605630235,-1.08127046257941e-05
-0.0022787333893021,0.00222293151753733,8.96657439598317e-05,-1.56421257195898e-05
-0.0022854925564225,0.00222324146170863,9.09436838548957e-05,-1.41912992927537e-05
-0.00225718034846666,0.00223089469855396,0.000116815986014961,-5.23434101516626e-06
-0.00222181095014876,0.00224323286075788,0.000150201669784073,8.04864590922087e-06
-0.00220792306708831,0.00225613130665608,0.000169550319432116,1.90290583774034e-05
-0.00221382392727279,0.00225759758100495,0.000163166340271102,2.30405227817543e-05
-0.00224537862809769,0.00225485576718186,0.00013291430113578,2.05773156266098e-05
-0.00228497995644688,0.00224827541400644,9.24800227102882e-05,1.46368603081672e-05
-0.00231922878737621,0.00224163545618269,5.80807712977112e-05,7.38612835703565e-06
-0.00234664692560714,0.00223467363325796,3.42277492568043e-05,9.71276256181562e-07
-0.00236721052928034,0.00223073972646831,1.19941019657903e-05,-1.11640665952292e-06
-0.00239285244899109,0.00223499549835893,-1.47237825910342e-05,3.26264150383223e-06
-0.0024181605826712,0.00224509252578572,-3.92379565293402e-05,1.13578538905966e-05
-0.00243412270749347,0.00224806083727246,-5.55708433681875e-05,1.65927475501764e-05
-0.00245229020430387,0.00224317325610955,-7.15198503248994e-05,1.31025553113104e-05
-0.00247008815229464,0.0022312284845846,-9.45736521201565e-05,-5.02784053196706e-07
-0.00248893514209599,0.00221269143895456,-0.000112883498259997,-1.92678059047433e-05
-0.00248866096071368,0.00219767106757588,-0.000108926971241308,-3.29929605294463e-05
-0.00246200576198135,0.00219578756068871,-8.84571665947363e-05,-3.27508243865579e-05
-0.00244714036268832,0.00221411002958477,-7.38964086301274e-05,-1.84905948293007e-05
-0.00244363560936663,0.00223329080541675,-6.71612554245859e-05,2.51879528722107e-06
-0.00241191401552641,0.00225425972069858,-4.3506738797126e-05,2.53583516047807e-05
-0.0023642422177936,0.00228012813807298,7.42123685569168e-06,4.96044966033953e-05
-0.00231672539214643,0.00230101360684714,5.60626619934664e-05,6.92942930457753e-05
-0.00229814066279773,0.00230001224875523,6.4750709211657e-05,6.98853334126296e-05
-0.00233670487026601,0.0022738100453502,2.91324824077518e-05,4.43116922326639e-05
-0.00239927783008086,0.00223780883776002,-2.95438334341061e-05,6.11105384059637e-06
-0.00245890632026829,0.00220621837414613,-9.90905203461639e-05,-2.53354825821381e-05
-0.00253893152111361,0.00218034995677173,-0.000180397786976679,-4.96650119755132e-05
-0.00262490526586206,0.00214989198147607,-0.00026326054328019,-8.14755111795918e-05
-0.0026806832957675,0.00211223376466237,-0.000320895801291239,-0.000120609692224086
-0.00268403307700354,0.00208828461696414,-0.00033096598738745,-0.000142878889024921
-0.00264219061387721,0.00210266125814088,-0.000289378286425859,-0.000128789497901008
-0.00255992427825476,0.00214490903287584,-0.000206188010298195,-8.92888131666401e-05
-0.00245473399488532,0.0021806360590837,-0.000101787890644508,-5.15750626685141e-05
-0.00234891190224361,0.00220490707188291,-2.91018921097151e-06,-2.7670320287533e-05
-0.00227035297574717,0.00222504152208814,7.49612731984526e-05,-9.47532851944525e-06
-0.00220824493218928,0.00224537862809769,0.000140767443316622,1.0953246083031e-05
-0.00213658822396923,0.00226454748300001,0.000208678080628957,3.09971008902407e-05
-0.00206934225972547,0.00228137983568787,0.00026855657220894,4.65035150019092e-05
-0.00204920780952023,0.00229380144439944,0.000293812248906623,5.75757785584655e-05
-0.00206559908781046,0.00229748501166612,0.000277271958735486,6.21153713785802e-05
-0.00209751141652533,0.00228949798879015,0.000237290148397005,5.3990798951705e-05
-0.00215477956263897,0.00226900591069495,0.000185353302058597,3.23192956299482e-05
-0.00222371829889526,0.00224343551656219,0.000112534174597393,5.43072745753927e-06
-0.00231411470854966,0.00221877111308402,1.94549310593666e-05,-1.76492080487143e-05
-0.002401411676491,0.00220452560213361,-6.21604882185172e-05,-3.27422597732969e-05
-0.00242970004258752,0.00220338119288571,-9.63738021055679e-05,-3.53434838285255e-05
-0.00240916028077366,0.00221954597351229,-7.92205756576621e-05,-1.96536450420974e-05
-0.00237096562212501,0.00224802507448346,-3.31017072572405e-05,1.07613887017638e-05
-0.00231202854585818,0.00227847112884945,2.26184015214891e-05,3.91039800076489e-05
-0.00225204242778077,0.00229139341660699,7.7409958621249e-05,5.10393093418333e-05
-0.00221790088521843,0.00228916420275952,0.00011525766823138,5.02514548840819e-05
-0.00221885455959168,0.0022904516631634,0.00011765585179128,5.05805891672845e-05
-0.00224962247905865,0.0022961737094029,8.42406411895768e-05,5.6268282299393e-05
-0.00229278816537787,0.00229972614644326,3.66807210086024e-05,5.91220279813892e-05
-0.00233881487481683,0.00229480280249135,-1.86473651764316e-06,5.37942561878879e-05
-0.00235995068311397,0.00228533758433685,-2.31173949856385e-05,4.57766247857758e-05
-0.00236325278063135,0.00228219045890513,-2.97802697284534e-05,4.18572236254208e-05
-0.0023611904597992,0.00228307260770038,-2.60351688287544e-05,4.06255173687319e-05
-0.00235455050197545,0.00227663530568095,-1.6185577342843e-05,3.65157484297133e-05
-0.00234553827914824,0.0022669793526518,-6.34167915707881e-06,2.74214333017758e-05
-0.00233914866084746,0.00225563062761012,-2.13728736090984e-06,1.38144124203435e-05
-0.0023436786141204,0.00223701013547242,-4.72593685703962e-06,-4.84284988023531e-06
-0.00235104574865375,0.00221200002503395,-8.56709583072618e-06,-2.70390103449529e-05
-0.00234479918150897,0.00219525111885375,-2.72114316194245e-06,-4.52744219243045e-05
-0.00231912149900922,0.00219069732372149,2.20280768226455e-05,-5.12090313314427e-05
-0.00227990164040933,0.00219510806769777,6.40743316357001e-05,-4.45859290922698e-05
-0.00223464979139863,0.00220690978806673,0.000111104005888394,-3.27809138932375e-05
-0.00219577563975904,0.00221849693170172,0.000150821534021938,-2.17650201273433e-05
-0.0021670104364759,0.00222846282890217,0.000177780724825306,-1.19868068380991e-05
-0.0021590710973186,0.00223509086579626,0.000188795889218978,-3.45799657668033e-06
-0.00217232717110677,0.00224078907017643,0.000179183289275294,7.38099712061385e-07
-0.00219918502564341,0.00223804725635333,0.000148325012392087,-8.18793554131835e-07
-0.00224589122807331,0.00223455442396131,0.000102865400805161,-3.70355040093105e-06
-0.00230484022526981,0.0022364975354968,4.94773812029452e-05,-2.83049806174138e-06
-0.00235965265987233,0.002238059177283,-9.37967312100747e-06,1.04828421136406e-07
-0.00241943612214542,0.00223674787501978,-6.82358072080369e-05,-9.65467853353244e-07
-0.00247023120345063,0.00222960723815007,-0.000116353191078271,-7.37616469501448e-06
-0.00250276342050811,0.00222471965698717,-0.000150217688250367,-1.39837619858949e-05
-0.00253077760522232,0.00221960557816062,-0.000178609128120267,-1.71021151276466e-05
-0.00256104484564333,0.00221593393182361,-0.000204527331841075,-1.90170124316195e-05
-0.00256026998521507,0.0022156239876523,-0.000212248258700567,-2.22359832037696e-05
-0.0025454165068517,0.00221283449011055,-0.000189251842249657,-2.39760541233192e-05
-0.00251023784340846,0.00221323980171918,-0.000155503911651192,-2.07394508763044e-05
-0.00249837651839116,0.00222028507115156,-0.000150095149049544,-1.54772913437643e-05
-0.00253787055837337,0.00222102416879083,-0.000185365008886122,-1.50802942217253e-05
-0.00258466020731093,0.00221321595985985,-0.000230762902102988,-2.13487217338885e-05
-0.00259761825785746,0.00220607532299014,-0.000247936010931018,-2.82779656346363e-05
-0.00257402673804919,0.00220563424859251,-0.000227604870157561,-2.81060169507461e-05
-0.00253624931193884,0.00221793664800743,-0.00018498755782478,-1.74823017028401e-05
-0.00248292699354452,0.00223443521466465,-0.000134449512217108,5.67479409563323e-07
-0.00242720856828741,0.00224910987908303,-8.35622148844694e-05,1.68083952646102e-05
-0.00239040865840963,0.00225437892999523,-4.44811136647885e-05,1.98164717790311e-05
-0.00237735524042578,0.00223953737256154,-3.36806110146558e-05,6.02260703496594e-06
-0.00239702477437405,0.00221931947584864,-5.52153302967861e-05,-1.35855004031412e-05
-0.00243153586575603,0.00221080793206739,-8.98984436451978e-05,-2.21210706437129e-05
-0.00244184746991679,0.00221900953167734,-0.000104803509429571,-1.35019569134212e-05
-0.00241191401552641,0.00223803533542367,-7.50566271909391e-05,3.87994370381813e-06
-0.00233938707944078,0.00225205434871044,-9.00512514505776e-07,2.00099337319925e-05
-0.00223928703303856,0.00226424945975837,9.26833526914431e-05,3.24910739054041e-05
-0.00215586436723854,0.00227493061273876,0.000174156831297539,4.07507198945853e-05
-0.00210697663467983,0.00227210535240801,0.000225439021379823,3.97750398822526e-05
-0.00208370697997254,0.00225843204608155,0.000245590773402676,2.68325139095631e-05
-0.00208394539856585,0.00224324478168754,0.000240743987419056,9.59467494392032e-06
-0.00210547459754196,0.00223262323335548,0.000218448787377145,-1.23845134225637e-07
-0.00213518155426869,0.00223294509845645,0.000190388418362916,1.16543113804154e-06
-0.00215202582788621,0.00224171890269034,0.000169345363057283,8.05758560746669e-06
-0.00215946448799756,0.00224818004656911,0.000158244728784928,1.55118835054125e-05
-0.00217012179911863,0.00225452198115122,0.00014879146260036,2.20669025575433e-05
-0.00218366397521877,0.00225932611580647,0.000134804847097001,2.56457789728444e-05
-0.0021939875003092,0.00225657238105371,0.00012006488698517,2.38482486629146e-05
-0.0022042871835403,0.0022524477393894,0.000109050374340939,1.91158730570016e-05
-0.00221651805737722,0.00225101722782953,9.80482848189235e-05,1.73433984301614e-05
-0.00222891582422947,0.00225298418122436,8.1774683783874e-05,1.99601225979507e-05
-0.00224875225119306,0.00225627435781207,6.18946658967468e-05,2.23303600987214e-05
-0.00226955427345957,0.00225484384625219,4.20267526975018e-05,2.08220973566982e-05
-0.00228630317963977,0.00225005163252661,2.10331609768552e-05,1.63553114390369e-05
-0.00230931057389442,0.0022437096979445,-4.92078623297211e-07,9.90273027443514e-06
-0.00232369913600082,0.00223468555418763,-1.37388383521229e-05,-2.66892369661311e-07
-0.00232040895941311,0.00221900953167734,-1.30964225254549e-05,-1.49926806814936e-05
-0.00231732143862971,0.00220255864873878,-1.08974402161934e-05,-3.21255729719442e-05
-0.00233652605632103,0.00218523753793463,-2.85434674985252e-05,-4.92609871461641e-05
-0.00238238587274467,0.00217055095258659,-7.10400487230044e-05,-6.42815978020978e-05
-0.00242375149868438,0.00216314805526424,-0.000118431691989175,-7.2740964785634e-05
-0.00245209946942922,0.00216344607850588,-0.000144840015767785,-7.05304130600153e-05
-0.00245423331583937,0.00217466367332123,-0.000141367369409475,-6.06604718056111e-05
-0.00243099942392107,0.0021851779332863,-0.000120535297262331,-5.10892028453695e-05
-0.00241119875974648,0.00219181789111006,-0.000103059363645972,-4.32553459962752e-05
-0.00241123452253547,0.00220593227183415,-9.91886578051894e-05,-2.93292196302373e-05
-0.00241532340141078,0.00223065627996065,-9.82675109115024e-05,-4.64582574517236e-06
-0.00239290013270975,0.0022604943669137,-7.87456999037559e-05,2.35687995918624e-05
-0.00234432234432234,0.0022805692124706,-3.33642624193e-05,4.47796804786007e-05
-0.00230394615554489,0.00229009403527343,1.92886434645432e-05,5.62419966996947e-05
-0.00226562036666991,0.00229721083028381,5.42368278967513e-05,5.95605127004577e-05
-0.00225181593011713,0.00228922380740784,6.55737592234723e-05,5.26121595653182e-05
-0.00226181759010658,0.00226776613400973,6.3868003912477e-05,3.37372485485592e-05
-0.0022710682315271,0.00224666608850158,5.50874671649213e-05,1.008419767162e-05
-0.00228924764926718,0.00222865356377682,3.65788408176643e-05,-7.83470699176087e-06
-0.00231972946642217,0.00221754325732847,1.10195420320326e-05,-1.84726286664345e-05
-0.00234504952103195,0.00220780385779165,-1.26535549758742e-05,-2.73038863357976e-05
-0.00236643566885207,0.00220215333713015,-3.38192922032448e-05,-3.34805584587853e-05
-0.00239658369997643,0.0022083760624156,-5.87706816906618e-05,-2.85219690406632e-05
-0.00242213025224985,0.00222532762440012,-8.04181147638971e-05,-1.04786469946548e-05
-0.0024154902944261,0.00224308980960189,-7.75531672449969e-05,9.40402266101368e-06
-0.00238825097014016,0.00225584520434411,-4.4362719834588e-05,1.84754211652822e-05
-0.00235681547861191,0.00225093378132187,-5.17518673747332e-06,1.53052030158246e-05
-0.00233325972159265,0.00224150432595636,1.38380881141243e-05,7.41342499748637e-06
-0.00233236565186773,0.00223836912145431,1.60437940584494e-05,2.28460493216095e-06
-0.00233484520523818,0.00223940624233521,2.29334768878228e-05,4.23304658653444e-06
-0.00231802477347998,0.00224949134883233,4.12544359715627e-05,1.44081802769802e-05
-0.00229712738377615,0.00226360572955642,5.91545686932909e-05,2.8581697283958e-05
-0.00229003443062511,0.00227258218959464,7.00290194100389e-05,3.8181781414282e-05
-0.00228699459356037,0.00227372659884254,8.13396802758196e-05,3.80068504732083e-05
-0.00227007879436486,0.00226544155272493,9.74169939674834e-05,3.12550563770876e-05
-0.0022586227809562,0.00225907577628349,0.000107337394565124,2.47522941674574e-05
-0.00227521671505074,0.00225737108334131,9.50347934456908e-05,2.18792339141738e-05
-0.00232313885230654,0.00225547565552447,5.45802130449657e-05,2.15778205606264e-05
-0.00238118185884844,0.00225437892999523,-5.69270085549905e-06,2.01949615053487e-05
-0.00244216933501776,0.00224770320938249,-6.8451372043654e-05,1.24855947148891e-05
-0.00249929442997542,0.00223015560091469,-0.000118367818405713,-4.00295921237558e-06
-0.00253760829792072,0.00221155895063632,-0.000153746380973132,-2.2574751989322e-05
-0.00256433502223104,0.00220344079753404,-0.000182318431334195,-3.07889609172315e-05
-0.00258133426793422,0.00221129669018368,-0.000197507869400588,-2.39928365291153e-05
-0.00255225912047977,0.00222460044769051,-0.000168421003850222,-1.00485723999566e-05
-0.00246495023160876,0.00223650945642647,-7.21941785812615e-05,3.36892820149812e-06
-0.00232279314534623,0.00225437892999523,6.49595851409814e-05,1.89457384313072e-05
-0.00220637334623178,0.00227671875218861,0.00017926886852104,4.0255608955119e-05
-0.00216431630637147,0.00229218019796492,0.000228787974018443,5.88657990438075e-05
-0.00216828597595012,0.00229562534663828,0.000226625773181141,6.11415141049067e-05
-0.00218074334745069,0.00228153480777352,0.000209117792372172,4.46594914787712e-05
-0.00220322622080005,0.00225499881833785,0.000188896866027977,1.81426809163972e-05
-0.00223944200512421,0.00222119106180615,0.000153809826812655,-1.22778075955122e-05
-0.00229821218837572,0.00218973172841857,9.93340236667616e-05,-4.59369328310298e-05
-0.00235269083694761,0.00216155065068904,4.09996216907733e-05,-7.83276093296111e-05
-0.00239417567218397,0.0021346570333634,-5.69785961242609e-06,-0.000101408063035449
-0.00244133486994117,0.00212020886660867,-4.33532042767281e-05,-0.000114481188393854
-0.00248307004470051,0.00211619151331136,-8.52946394290571e-05,-0.000122244901480916
-0.00252475753574118,0.00212318909902508,-0.000135837584093085,-0.000118961767440333
-0.00257133260794476,0.00214655412116969,-0.000180830586269718,-8.87349847787446e-05
-0.00259488836496403,0.00220729125781603,-0.000196988675513384,-2.9744424321255e-05
-0.00256623045004788,0.00227699293357092,-0.000173256752210792,3.34641470367879e-05
-0.00251201406192863,0.00231350674113671,-0.000125661331244727,7.30792427468813e-05
-0.00247575059388581,0.00232326998253286,-8.73098435283625e-05,8.53512111359124e-05
-0.002477419524039,0.00232492699175638,-7.96541518132631e-05,8.37259078092443e-05
-0.00247926726813717,0.00231752409443403,-9.61624825749589e-05,7.30197037489469e-05
-0.0024982930718835,0.00228917612368918,-0.000115246582079688,4.67271865147373e-05
-0.00251238361074827,0.00224785818146814,-0.00012096908747135,7.6289089573887e-06
-0.00248943582114195,0.00221807969916342,-0.000105879062059691,-2.66293049970254e-05
-0.00244516148836383,0.00220273746268376,-6.50838944552981e-05,-4.39081415560258e-05
-0.00238503231913044,0.00219250930503066,-3.29175014718956e-06,-5.08062581794159e-05
-0.00232676281492488,0.00218648923554952,5.49500781925252e-05,-5.81453042072468e-05
-0.00229814066279773,0.0021841050496164,7.9032721499824e-05,-6.31514008400872e-05
-0.00231171860168687,0.00219123376555644,6.32005208103098e-05,-5.5854645759416e-05
-0.00234122290260928,0.00221084369485639,3.48883962743387e-05,-3.71374082155738e-05
-0.00234677805583346,0.00222723497314662,2.62131563323044e-05,-1.92716225539498e-05
-0.00232846750786707,0.00223870290748494,4.29828523140375e-05,-9.36898415892835e-06
-0.00230124010451079,0.00225094570225154,6.60377482413813e-05,-1.42750476461895e-06
-0.00229361070952479,0.00226107849246731,7.60280312602956e-05,1.29776281241332e-05
-0.00229772343025943,0.00228050960782228,6.99626121797374e-05,3.25405582521065e-05
-0.00230082287197249,0.00230207456958738,5.83913068903474e-05,4.84014536102046e-05
-0.00231064571801696,0.00230575813685406,5.47178784318786e-05,5.47118659038938e-05
-0.00229705585819816,0.00230364813230325,6.5506810439945e-05,5.31879926640589e-05
-0.00227239145471999,0.00230073942546483,8.35475611652679e-05,4.87940279277972e-05
