BCL,BCC,BCL_Filtered,BCC_Filtered
-,-,-,-
-0.0017079473559825,0.00524327786226737,1.353565201106e-20,-1.04515440913286e-20
-0.00171219120694346,0.00524109633213856,2.05180469031273e-05,-2.29639609643081e-05
-0.00162545452269641,0.00517741472586481,5.07917842289927e-05,-4.52855757924859e-05
-0.00162131796010244,0.00519238741352483,7.84874580604973e-05,-5.24828955144284e-05
-0.00161768207655442,0.00521562130544313,8.53657841450937e-05,-3.28413647872437e-05
-0.00161559591386294,0.00524067909960026,7.52729316631106e-05,1.70262811559823e-06
-0.00161421308602173,0.00526591570770238,6.81579313765726e-05,2.81322800461576e-05
-0.00161409387672507,0.00528181822787632,7.10538231206606e-05,4.056472734604e-05
-0.00161376009069443,0.00529258282736437,7.21714205029283e-05,5.0283489596912e-05
-0.00161553630921461,0.00530071290139633,6.28564497223624e-05,6.16321405729686e-05
-0.00162279615538097,0.00530242951526818,4.93059920161516e-05,6.57410513126576e-05
-0.00163347730836137,0.00529806645501056,3.97409789227308e-05,5.93610595214911e-05
-0.00163927088017886,0.00529377492033094,3.3424280704232e-05,5.31146449847139e-05
-0.00163984308480281,0.00529093773907052,2.703059867856e-05,5.51649538100618e-05
-0.00164107094055837,0.0052945855435482,2.081940412932e-05,5.95206456596578e-05
-0.00164940367039464,0.00529525311560947,1.29944165148737e-05,5.7613092226182e-05
-0.00166492472081928,0.0052877190880608,-2.43473640043337e-06,5.10913941758316e-05
-0.00168111334330519,0.00527848036756994,-2.51018316653619e-05,4.50682700569761e-05
-0.00169440517988236,0.00526918204243076,-4.25494234427015e-05,3.68921353583578e-05
-0.00170006762147353,0.00525866778246568,-4.24377590354607e-05,2.09002288004047e-05
-0.00167485485523074,0.00522853167227099,-2.64545869937244e-05,-5.4532377342059e-07
-0.00165591249799207,0.00521377356134495,-6.37686681910595e-06,-1.93286602449239e-05
-0.00163801918256397,0.00519878895275527,9.92299663325171e-06,-3.23881785092769e-05
-0.00162225971354602,0.0051874044649246,2.26939377418549e-05,-4.3099632798948e-05
-0.00161137590476131,0.00517607958174226,3.35720708183296e-05,-5.29847564507628e-05
-0.00160158882150583,0.00517077476804106,4.14983338615445e-05,-5.80587463080318e-05
-0.00159558067295436,0.00517458946553406,4.54980983894441e-05,-5.38529605778576e-05
-0.00159405479395716,0.00518583090220874,4.67350476494842e-05,-4.0467352178585e-05
-0.00159313688237291,0.00520397455715981,4.65074841710218e-05,-2.26888004247698e-05
-0.00159379253350452,0.00521813662160257,4.46839480653239e-05,-7.29335608414777e-06
-0.00159717807752955,0.00522564680729191,4.08186578309357e-05,1.1030625371219e-06
-0.00160144577034985,0.00522760183975707,3.52470710028313e-05,3.96865461205239e-06
-0.00160779962586162,0.00523027212800217,2.87844527867462e-05,7.27149872448532e-06
-0.00161393890463942,0.00523642332770963,2.23486553306406e-05,1.39246049863643e-05
-0.00161845693698269,0.0052409413600529,1.68369520851522e-05,1.98671901947691e-05
-0.00162253389492833,0.00524072678331892,1.26931039940683e-05,2.00633769463871e-05
-0.00162478695063513,0.00523600609517134,9.77433326147008e-06,1.58799155536189e-05
-0.00162767181561421,0.00523237021162332,7.7762460360632e-06,1.3099125874052e-05
-0.0016285420434798,0.00523315699298125,5.98002283008928e-06,1.45098359643975e-05
-0.00163148651310721,0.00523580343936702,2.42124418450401e-06,1.82393535347977e-05
-0.00164054641965308,0.00524005921125765,-5.35756180699094e-06,2.21789833385865e-05
-0.00165249119117804,0.0052432659413377,-1.78928285252235e-05,2.60762812289697e-05
-0.00166761885092371,0.00524505408078754,-3.28797898690413e-05,2.94842910014564e-05
-0.00168187628280379,0.00524719984812736,-4.71537581576688e-05,3.10614842937504e-05
-0.0016939045008364,0.00524679453651872,-5.88690279813491e-05,3.01869473594749e-05
-0.00170294056552294,0.00524086983447491,-6.75218764174985e-05,2.67592320760029e-05
-0.00170875797919977,0.00523476631848611,-7.2989838531324e-05,1.96040879152801e-05
-0.00171060572329794,0.00522284538882049,-7.53421388097455e-05,7.74414876119941e-06
-0.00171113024420322,0.00520788462209014,-7.50437149659056e-05,-6.80047214289525e-06
-0.00170902023965241,0.00519408018553735,-7.27007308999657e-05,-2.00742950326255e-05
-0.0017056943002757,0.00518392355346224,-6.85360715234107e-05,-3.0190477928208e-05
-0.00169798145878204,0.00517711670262317,-6.1944990688389e-05,-3.79774710204217e-05
-0.00168867121271319,0.00517063171688507,-5.16262191873947e-05,-4.38521574988092e-05
-0.00167520056219104,0.00516701967519639,-3.72058657059387e-05,-4.71181336675723e-05
-0.0016590238606348,0.00516532690318387,-2.13524524690073e-05,-4.91503145652611e-05
-0.00164610157287726,0.00516164333591719,-8.82260404197056e-06,-5.43502059358273e-05
-0.00163985500573248,0.00514915020162762,-1.79774882070245e-06,-6.5812521488578e-05
-0.00163614759660647,0.00513372451864031,2.82999106280908e-06,-8.1065641544371e-05
-0.00162879238300278,0.00512305528658958,9.68082477151067e-06,-9.33186233118192e-05
-0.00161875496022433,0.00512042076113348,1.92673877358602e-05,-9.63593237995201e-05
-0.00161066064898137,0.00512864620260276,2.82928430715625e-05,-8.80316255232282e-05
-0.00160474786786722,0.00514584810411025,3.47333359554366e-05,-7.04742901867869e-05
-0.00159957418439234,0.00516978533087881,3.97057697867756e-05,-4.82732231940862e-05
-0.00159370908699686,0.00519357950649139,4.42216286436717e-05,-2.5859397572265e-05
-0.00159271964983461,0.00521225960327742,4.71242934308324e-05,-5.53577198720686e-06
-0.00159279117541261,0.00523082049076679,4.73192934263997e-05,1.25679574220087e-05
-0.00159240970566331,0.00525088341539403,4.56974438830416e-05,2.89799730989066e-05
-0.00159590253805533,0.00526340039154293,4.34814826461832e-05,4.34807106234084e-05
-0.00159939537044736,0.00527496369331859,4.03938975017252e-05,5.46779939333187e-05
-0.00160321006794036,0.00528225930227395,3.57103554255879e-05,6.05736075640076e-05
-0.00160936126764782,0.00528334410687352,2.97013992884185e-05,6.01800035008839e-05
-0.00161620388127589,0.00527734787925171,2.29087165067967e-05,5.50935046730203e-05
-0.00162359485766857,0.00527102978652893,1.52631605038207e-05,4.86147996555134e-05
-0.00163216600609815,0.00526727469368426,6.95662455600467e-06,4.25240511717349e-05
-0.00163971195457649,0.00525954993126094,-9.9112121579518e-07,3.56494888864784e-05
-0.00164644727983757,0.00525095494097203,-8.05610825696878e-06,2.65974256174708e-05
-0.0016536832841446,0.00524238379254244,-1.50956381342713e-05,1.67734799946523e-05
-0.00166178951631722,0.00523370535574587,-2.30559907349654e-05,9.23346625893238e-06
-0.00166981230198218,0.00523172648142138,-3.17539385150719e-05,5.44203437894536e-06
-0.00167843113413043,0.00523107083028977,-4.05558259889498e-05,4.80731716661313e-06
-0.00168726454301265,0.00523196490001469,-4.89714824094866e-05,6.57369621838146e-06
-0.00169392834269573,0.00523633988120197,-5.57220426361895e-05,1.01609855822069e-05
-0.00169562111470825,0.00524122746236488,-5.86460107563525e-05,1.40827042584492e-05
-0.00169531117053695,0.00524265797392475,-5.68991177485669e-05,1.65530106195541e-05
-0.00168949375686012,0.00524274142043241,-5.22841233557601e-05,1.70084711539776e-05
-0.00168441544082257,0.00524194271814482,-4.70128950522712e-05,1.54258454528253e-05
-0.00167855034342708,0.00523777039276185,-4.0764303452922e-05,1.10848482559355e-05
-0.00166789303230602,0.00522978336988588,-3.11730246051488e-05,4.69305190898725e-06
-0.00165460119572885,0.00522638590493118,-1.67890437635521e-05,1.11947347009768e-06
-0.00163552770826386,0.00523216755581901,1.40685108569365e-06,6.11863324593742e-06
-0.00161604890919023,0.00524324209947837,2.07922472885165e-05,1.91281516854443e-05
-0.00159977684019666,0.00525659354070386,3.82436703365201e-05,3.25479062848658e-05
-0.00158524522693427,0.00526412756825254,5.10615224307271e-05,4.00681648855633e-05
-0.00157865295282918,0.00526599915421004,5.83732372859965e-05,4.29494898274662e-05
-0.00157599458551375,0.00526748927041824,6.20077823316295e-05,4.56336460654284e-05
-0.00157141694852215,0.00526983769356237,6.50935988957416e-05,4.77792492381541e-05
-0.00156768569753681,0.00526559384260141,6.92267991690332e-05,4.4521540411743e-05
-0.00156455049303475,0.00525333912690515,7.30821142162881e-05,3.37317199559716e-05
-0.0015636325814505,0.00523824722994847,7.37565957960947e-05,1.91062341908531e-05
-0.00156735191150617,0.00522439510967702,6.94378105349076e-05,5.40062832619751e-06
-0.00157620916224773,0.0052105668312649,6.11206946710512e-05,-6.2884946388608e-06
-0.00158587703620655,0.00519939692016822,5.18958920000932e-05,-1.70916970228618e-05
-0.0015928984637796,0.00518888266020314,4.42109669983099e-05,-2.6773301526035e-05
-0.00159976491926699,0.00518037111642188,3.77719005790881e-05,-3.39641626527611e-05
-0.00160677442591038,0.005175197432947,3.05047182364881e-05,-3.88714227969934e-05
-0.00161651382544719,0.0051684740286156,2.11262188485532e-05,-4.33956986569268e-05
-0.00162820825744917,0.0051630976893364,9.58415990316267e-06,-4.84686828127745e-05
-0.00164190540563496,0.00515861541978213,-4.68833814963333e-06,-5.27928802956046e-05
-0.00165987024664105,0.00515488416879679,-2.26516181899141e-05,-5.43280962985772e-05
-0.0016810418177272,0.00515638620593466,-4.2778441184354e-05,-5.16656155198629e-05
-0.00169755230531408,0.00516481430320825,-6.03825937283664e-05,-4.39547738184406e-05
-0.0017087460582701,0.00517541200968099,-7.18452524857789e-05,-3.15502377658135e-05
-0.0017163039276781,0.00518748791143226,-7.82816113304863e-05,-1.77720429470179e-05
-0.00171983252285913,0.00519821674813132,-8.29178421322573e-05,-8.07520016703292e-06
-0.00172307501572818,0.00519880087368493,-8.59413926309687e-05,-5.29157506477865e-06
-0.00172159682044964,0.00519762070164804,-8.47537282712178e-05,-6.50571538143292e-06
-0.00171576748584315,0.00519723923189874,-7.89295712364658e-05,-6.62343901863229e-06
-0.00170819769550548,0.00519765646443703,-7.14815146310226e-05,-4.22348784178438e-06
-0.00169987688659888,0.00520153076657836,-6.40676832368202e-05,-1.41041456131813e-06
-0.00169039974751471,0.0052037719013555,-5.39120456714981e-05,1.31287250611195e-06
-0.00167356739482685,0.00520693094771689,-3.78522818075747e-05,6.08686552489428e-06
-0.00165247927024837,0.00521446497526556,-1.77394135112259e-05,1.28089807851569e-05
-0.00163482437341358,0.00521919758434281,8.34347146134096e-07,1.74321916339669e-05
-0.00162007818341721,0.00521863730064853,1.45421580795886e-05,1.78122761630443e-05
-0.00160903940254685,0.00521929295178014,2.45880346653096e-05,1.78721481977303e-05
-0.00160067090992158,0.00522338183065544,3.29592092327826e-05,2.21431868390856e-05
-0.00159500846833041,0.00523030789079117,3.89996139215604e-05,2.85284853244445e-05
-0.00159112224525942,0.00523290665345828,4.11106807522109e-05,3.1108359254369e-05
-0.00159089574759577,0.00523129732795342,4.03298730264459e-05,2.90316977425821e-05
-0.00159237394287431,0.00523014099777585,4.01507042066893e-05,2.75613903924675e-05
-0.00158836851050666,0.00523309738833293,4.27383215348059e-05,2.98326179666732e-05
-0.00158246765032218,0.0052364710114283,4.67277496980563e-05,3.22778095383495e-05
-0.00158035764577136,0.00523391993247985,4.93990163441733e-05,2.99274633718835e-05
-0.00157966623185076,0.00522836477925567,5.00574144455517e-05,2.24524867145062e-05
-0.00157768735752626,0.00521830351461789,5.00485860117022e-05,1.28520521923674e-05
-0.00157724628312864,0.00521156818935681,4.97258687501466e-05,3.54891553216056e-06
-0.0015799642550924,0.00520379574321483,4.70819815620952e-05,-3.49452306762155e-06
-0.00158633003153384,0.00520337851067653,4.02943804537898e-05,-5.72495884624476e-06
-0.00159417400325382,0.00520767004535616,3.03524496764496e-05,-2.9132789899534e-06
-0.0016050339701792,0.0052109840638032,1.94283292530317e-05,-8.84175907887941e-08
-0.00161689529519649,0.0052075508360595,7.25099635607021e-06,-4.31552922759211e-06
-0.00163140306659955,0.00519596369242452,-8.46616462955345e-06,-1.82442675999787e-05
-0.00164953480062096,0.00517662794450688,-2.73243529541421e-05,-3.82480574554683e-05
-0.00166568766031788,0.00515662462452797,-4.42798528773962e-05,-5.8298520329961e-05
-0.00167503366917572,0.00514407188559007,-5.43136223123741e-05,-7.42580199126932e-05
-0.00167853842249742,0.00513274700240773,-5.78803458516389e-05,-8.52935125957842e-05
-0.0016786814736534,0.00512657196084094,-5.97004415412129e-05,-9.28533109233558e-05
-0.00168154249677315,0.00512270957962928,-6.28313954811829e-05,-9.80184979805297e-05
-0.00168433199431491,0.00512316257495657,-6.62318096990019e-05,-9.93123024975427e-05
-0.00168598900353843,0.00512853891423577,-6.81119810360464e-05,-9.46515270460187e-05
-0.00168581018959345,0.00513707429987635,-6.89252517755625e-05,-8.62120357646167e-05
-0.00168521414311016,0.00514588386689924,-6.95049139155314e-05,-8.02795661316239e-05
-0.00168408165479193,0.00514729053659979,-6.79101366954539e-05,-7.93558382628242e-05
-0.00167661915282125,0.00514928133185395,-6.03439368158425e-05,-7.68389181715274e-05
-0.00165896425598647,0.00516520769388721,-4.52275579373498e-05,-6.38003477916944e-05
-0.00163973579643582,0.0051889661067108,-2.51301076990605e-05,-3.99192867013653e-05
-0.00161952982065259,0.00521613390541875,-4.39240962219964e-06,-1.30126964921681e-05
-0.00159870395652675,0.00524344475528269,1.44132138168379e-05,1.19615203920824e-05
-0.00158251533404084,0.00526750119134791,3.13251533102917e-05,3.76226346135631e-05
-0.00156636247434392,0.00529699357134065,4.68903653344769e-05,6.59589314263815e-05
-0.00155315408427442,0.00532480510025055,6.01386067076305e-05,9.10108445819692e-05
-0.00154416570330654,0.00533515246720031,6.92575059784513e-05,0.000104624405010749
-0.00153874168030868,0.0053382757507727,7.40617974178787e-05,0.00010687921357111
-0.00153588065718893,0.00534007581115221,7.67228097830001e-05,0.000105910762878026
-0.00153417596424675,0.00534040959718285,7.92712351442967e-05,0.000108042845858594
-0.00153255471781222,0.00534210236919536,8.10028830120111e-05,0.000112109005714167
-0.00153292426663186,0.00534672768990562,7.94737340920813e-05,0.000113567558801528
-0.00153943309422929,0.00534290107148296,7.38359821314185e-05,0.00011038990306262
-0.00154831418683017,0.00533356698355478,6.6005877534939e-05,0.000103698070748553
-0.00155510911673958,0.00532541306766349,5.8544970085279e-05,9.56188215297123e-05
-0.0015608907676274,0.00531976254700199,5.26413278436873e-05,8.84753508172778e-05
-0.00156615981853961,0.00531294377523325,4.82211221009107e-05,8.42362583263668e-05
-0.0015711546880695,0.00531009467304317,4.42697194339908e-05,8.26230918801598e-05
-0.00157685289244967,0.00530740054293874,3.81821616678555e-05,8.03585310541781e-05
-0.00158814201284301,0.00530067713860733,2.64602501836186e-05,7.36927060122673e-05
-0.00160864601186788,0.00528613360441527,7.8610040405423e-06,6.15931775099298e-05
-0.00163165340612253,0.00526889594011879,-1.46011660005822e-05,4.60292959391078e-05
-0.00165207395863974,0.0052527669222812,-3.60297532799263e-05,2.97481148039564e-05
-0.00167109976238607,0.00523530276032107,-5.36232892076308e-05,1.41993174624187e-05
-0.0016851664593915,0.00521764786348628,-6.72161748091389e-05,-1.11171862509105e-06
-0.00169537077518527,0.00520021946431514,-7.65722412021562e-05,-1.76485348266528e-05
-0.00169899473780362,0.0051817181814741,-8.01092890277993e-05,-3.54259751503758e-05
-0.00169523964495895,0.00516215593589282,-7.6876962922546e-05,-5.13746045981184e-05
-0.00168968449173477,0.00515193969916938,-6.85652297696661e-05,-6.14869874735296e-05
-0.00167946825501134,0.00514621765292988,-5.86680525753859e-05,-6.52287814772712e-05
-0.00166969309268553,0.00514264137403019,-5.00377310036357e-05,-6.63235123961327e-05
-0.00166569958124754,0.00513962537882479,-4.35143120038772e-05,-6.81911277588484e-05
-0.00166054973963199,0.0051357749185428,-3.82485861075037e-05,-7.03440717850559e-05
-0.00165519724221213,0.00513267547682974,-3.27394328933893e-05,-7.09931350244437e-05
-0.00164794931697543,0.0051311257559732,-2.58937193536862e-05,-7.15859211094558e-05
-0.001641547777745,0.00512423545862648,-1.77589249510341e-05,-7.60187428922299e-05
-0.00163403759205565,0.0051125052638355,-9.43045444519403e-06,-8.57280351532217e-05
-0.00162498960643945,0.00510015518070192,-2.096479178437e-06,-9.79435488860174e-05
-0.00162044773223685,0.00508565933022853,3.95661441018629e-06,-0.000108711280172864
-0.00161620388127589,0.00507794648873487,9.5588926016255e-06,-0.000115265474490222
-0.00160852680257123,0.00507735044225159,1.60845874889325e-05,-0.000115262411490415
-0.00159980068205599,0.00508377582334136,2.461700653666e-05,-0.000106477931437415
-0.00159097919410343,0.005099296873766,3.52980750401269e-05,-8.87172905702725e-05
-0.00157871255747751,0.00512263805405128,4.70242801798949e-05,-6.45569296225639e-05
-0.00156770953939614,0.0051490548341903,5.74424781334914e-05,-3.74424924470959e-05
-0.00156233320011694,0.0051733258469895,6.3305733593737e-05,-1.06156242025015e-05
-0.00156478891162806,0.00519417555297467,6.16005635451154e-05,1.18489439630028e-05
-0.00157413492048591,0.00520852835229208,5.15458940664098e-05,2.5970558257851e-05
-0.00158905992442727,0.00521271259860471,3.61555266285366e-05,3.2079679450896e-05
-0.00160475978879689,0.00521533520313115,2.12398949719106e-05,3.63471825108766e-05
-0.00161390314185042,0.00522394211434973,1.15151495733932e-05,4.54321019618508e-05
-0.001618695355576,0.00523803265321449,6.73965356956532e-06,5.99218788022432e-05
-0.0016232372297786,0.00525079996888637,1.74628648519312e-06,7.46620684684116e-05
-0.0016331554432604,0.00526080162887583,-8.92989646846244e-06,8.48909043758898e-05
-0.00165109644240716,0.0052661183635067,-2.57213823883389e-05,9.0185844626749e-05
-0.0016673446695414,0.00526636870302967,-4.31606930517827e-05,9.26258267339521e-05
-0.00167728672488253,0.00526744158669958,-5.45797998277882e-05,9.30504549669978e-05
-0.00168179283629613,0.00526443751242384,-5.76844057740603e-05,9.00240278322861e-05
-0.00167874107830173,0.00525434048499706,-5.53587302594189e-05,8.19656291125069e-05
-0.00167350779017852,0.00524317057390038,-5.17265891682321e-05,6.98100913816978e-05
-0.00167062292519944,0.00523023636521318,-4.88594446902406e-05,5.70224926677039e-05
-0.00166943083223288,0.00521856577507053,-4.73188346637381e-05,4.61096995573458e-05
-0.00166829834391465,0.00520825417090977,-4.75162647340933e-05,3.54305459716206e-05
-0.00166857252529696,0.00519399673902969,-4.85456873994268e-05,2.12021660905784e-05
-0.00166670093933946,0.005175304721314,-4.69628261981349e-05,2.94963804953396e-06
-0.00165896425598647,0.00515867502443045,-3.9409381545321e-05,-1.52183332497637e-05
-0.00164498100548869,0.00514335662981013,-2.65705767273596e-05,-2.96000172641354e-05
-0.00163030634107031,0.00513218671871345,-1.24994302071867e-05,-4.0589728592909e-05
-0.0016172052393678,0.00512450964000878,1.91437699540923e-07,-4.97656697902697e-05
-0.00160441408183659,0.00511907369608126,1.23631138806834e-05,-5.61353550780852e-05
-0.0015909553522441,0.00511548549625191,2.51478024712002e-05,-5.81978584388922e-05
-0.00157834300865787,0.00511678487758546,3.71952228399571e-05,-5.75815858153687e-05
-0.00156791219520045,0.0051201346588215,4.65939889323334e-05,-5.69821015436303e-05
-0.00156083116297908,0.00512083799367177,5.36821814521709e-05,-5.57899186270832e-05
-0.00155401239121034,0.00512312681216757,5.9970651660609e-05,-5.17005650864924e-05
-0.00154705056828562,0.0051319959838388,6.52206496889813e-05,-4.60173609897765e-05
-0.00154575118695207,0.0051364663324634,6.73614293585718e-05,-4.29940533301543e-05
-0.00154682407062197,0.00513441593256092,6.49761001655274e-05,-4.334877496288e-05
-0.00155236730291649,0.00513584644412079,5.87624003808613e-05,-4.2381475639406e-05
-0.00156035432579245,0.00514522821576763,5.09900519451351e-05,-3.58787340784858e-05
-0.00156564721856399,0.0051566127035983,4.42985543808508e-05,-2.47113274476977e-05
-0.00156980762301729,0.00516811640072563,4.01628374620042e-05,-1.22898680354311e-05
-0.00157234678103607,0.0051805380094372,3.74542729338461e-05,-7.14238088900707e-07
-0.00157539853903046,0.00519291193443012,3.3168007073893e-05,8.69648430140982e-06
-0.00158344516655476,0.00519751341328105,2.54697041934365e-05,1.41188063303664e-05
-0.00159294614749826,0.00519787104117102,1.5265192667728e-05,1.5292897230745e-05
-0.00160355577490066,0.00520051748755678,4.06473990476296e-06,1.50962089574122e-05
-0.00161652574637686,0.00520254404559994,-8.33022314836651e-06,1.64636231235853e-05
-0.00162954340157171,0.00520347387811386,-2.26290860724416e-05,1.87070900566289e-05
-0.00164440880086474,0.00520591766869531,-3.76653506584737e-05,1.89080277130621e-05
-0.00165839205136252,0.00520305664557556,-5.08993443955404e-05,1.62040287342716e-05
-0.00166715393466675,0.00520101816660274,-6.07352539264181e-05,1.29339442383069e-05
-0.00167326937158521,0.0051995399713242,-6.70730803542051e-05,1.1971261222677e-05
-0.00167664299468058,0.0052029731990679,-7.0310417924296e-05,1.4284897735896e-05
-0.00167752514347584,0.00520871908716673,-7.09905977150592e-05,1.8932438358422e-05
-0.00167559395287001,0.00521283180790137,-6.94426606233115e-05,2.46067376268176e-05
-0.00167002687871616,0.00522213013304055,-6.45406202962942e-05,3.11305397372559e-05
-0.00166064510706932,0.00522913963968394,-5.42998539520524e-05,3.907179245661e-05
-0.00164592275893228,0.00523693592768526,-3.94777817687642e-05,4.69890780631974e-05
-0.00163019905270332,0.00524152548560652,-2.48795983013949e-05,4.99568134962491e-05
-0.0016209484112828,0.00523446829524447,-1.44035743770397e-05,4.35096695651958e-05
-0.00161184082101827,0.00522106917030031,-5.98613838535259e-06,2.97310861396303e-05
-0.00160088548665556,0.00520849258950308,5.41759279445682e-06,1.70675650270512e-05
-0.00158597240364387,0.00520477325944741,2.05529970912416e-05,1.27345927713641e-05
-0.0015712262136475,0.00520818264533178,3.50003332976326e-05,1.66655772089839e-05
-0.00156084308390874,0.00521543057056848,4.53422894616576e-05,2.32795225095259e-05
-0.00155490646093526,0.00521885187738251,5.23712622056439e-05,2.68303533239645e-05
-0.00154939899142975,0.00521583588217711,5.75451224755089e-05,2.42446957589884e-05
-0.00154628762878702,0.00520800383138679,6.01862515495127e-05,1.57097412352858e-05
-0.00154718169851194,0.00519667894820445,5.99477521583159e-05,4.57832890616324e-06
-0.00154937514957041,0.00518624813474704,5.87759368890672e-05,-5.13207165504545e-06
-0.00154941091235941,0.00517910749787733,5.80342799861652e-05,-1.26021533765061e-05
-0.00155091294949728,0.00517220527960093,5.60386602334893e-05,-1.96847352342969e-05
-0.00155782708870334,0.00516544611248053,5.07573545023561e-05,-2.58669234535756e-05
-0.00156559953484532,0.00516345531722637,4.30286560703077e-05,-2.72891733091751e-05
-0.00157315740425333,0.00516823561002228,3.4849811742443e-05,-2.27763170744176e-05
-0.00158202657592455,0.00517385036789479,2.61711940023339e-05,-1.70786467586458e-05
-0.00159335145910689,0.00517535240503266,1.57300052288874e-05,-1.4851747512305e-05
-0.00160639295616108,0.00517462522832306,3.69513221376981e-06,-1.4696234910638e-05
-0.00161652574637686,0.00517718822820116,-8.83949002045902e-06,-1.31368227657982e-05
-0.0016316295642632,0.00517767698631745,-2.18643997392449e-05,-1.15059629948639e-05
-0.00164614925659592,0.00517431528415175,-3.56761899995561e-05,-1.38674720326427e-05
-0.00165816555369887,0.00516866476349024,-4.90709638494996e-05,-2.01185515245546e-05
-0.00167030106009847,0.0051615718103392,-6.06023679218827e-05,-2.65045901339384e-05
-0.00168124447353151,0.0051551583501791,-7.07156851373201e-05,-3.16973893239352e-05
-0.00169036398472571,0.00515056879225783,-8.00894425495068e-05,-3.67054894342499e-05
-0.0016965390262925,0.0051471117226548,-8.65436823723813e-05,-3.9442407940001e-05
-0.00169711123091645,0.00514949590858793,-8.65465918591288e-05,-3.58154059902837e-05
-0.00169063816610802,0.0051585200523448,-7.98794963625752e-05,-2.72024319942343e-05
-0.00168048153403291,0.005163824866046,-7.00449015863824e-05,-2.09965476861873e-05
-0.0016700149577865,0.0051619890428775,-5.94584807591854e-05,-2.17878843149404e-05
-0.00165786753045723,0.00515705377799593,-4.67766588269222e-05,-2.6879404789393e-05
-0.00164053449872342,0.0051505807131875,-3.00588431102026e-05,-3.20708878534432e-05
-0.00162113914615745,0.00514674217383517,-1.03688520483967e-05,-3.61929404158547e-05
-0.00160138616570152,0.00514403612280107,9.3114967471894e-06,-3.72544948333912e-05
-0.0015837789525854,0.00515083105271048,2.71290019081861e-05,-3.0170241822273e-05
-0.00156785259055213,0.00516811640072563,4.25599600394393e-05,-1.33350273012329e-05
-0.0015559674236755,0.00518564016733409,5.45964197713336e-05,6.55588000462318e-06
-0.00154860028914215,0.00520104200846207,6.16855458120258e-05,2.14617670600905e-05
-0.00154711017293395,0.00521013767779694,6.35323619188515e-05,3.11570681007076e-05
-0.00154830226590051,0.0052186134587892,6.18381028815027e-05,4.07808631102291e-05
-0.001550281140225,0.0052296403187299,5.90310792303039e-05,5.16921954345237e-05
-0.00155345210751606,0.00523648293235796,5.67284802656772e-05,6.0061785286328e-05
-0.0015548587772166,0.00524007113218731,5.52351202298892e-05,6.33143416569387e-05
-0.00155462035862329,0.00523884327643176,5.38875098696161e-05,6.28107042199856e-05
-0.00155688533525976,0.00523542196961772,5.17825967856295e-05,6.03307023012843e-05
-0.00156118879086904,0.00523073704425913,4.84699020558911e-05,5.63841356519926e-05
-0.00156437167908977,0.00522724421186711,4.40014728717619e-05,5.21193295845446e-05
-0.00156862745098039,0.00522226126326688,3.83957027394249e-05,4.86121494500554e-05
-0.00157650718548937,0.00521636040308239,3.14961644888887e-05,4.37112506847828e-05
-0.00158458957580266,0.00520721705002886,2.35401115600268e-05,3.38184156712231e-05
-0.00159096727317377,0.0051931622739531,1.53024301844359e-05,2.02158450719282e-05
-0.00159869203559709,0.00518155128845878,7.09946308477993e-06,9.99667162780736e-06
-0.00160872945837554,0.00517998964667258,-2.10669372955131e-06,8.50571633778138e-06
-0.00161993513226122,0.00518517525107713,-1.39371868268424e-05,1.31380450005002e-05
-0.00163286934094842,0.0051877859346739,-2.86959283595722e-05,1.65432503764022e-05
-0.00164884338670035,0.0051846984138905,-4.44804915980818e-05,1.44660281305437e-05
-0.00166304121393211,0.00517950088855629,-5.83644480249596e-05,8.9660229164137e-06
-0.00167174349258801,0.00517613918639059,-6.84258360250951e-05,4.92876458903579e-06
-0.00167729864581219,0.00517413647020677,-7.46552963706936e-05,4.41018069533923e-06
-0.00168010006428361,0.00517363579116081,-7.81681836066089e-05,3.97442055151495e-06
-0.00168244848742774,0.00516808063793663,-7.9838438788771e-05,-2.20821417035086e-06
-0.00168060074332957,0.00515414507115752,-7.9606258487177e-05,-1.57245037627979e-05
-0.00167657146910259,0.0051384452067879,-7.65757813024562e-05,-3.13101003702471e-05
-0.00166977653919319,0.00512639314689595,-6.94762097560638e-05,-4.27095218176226e-05
-0.00165745029791893,0.00512003929138418,-5.75712398399606e-05,-4.99997173785689e-05
-0.00164020071269278,0.00511176616619624,-4.19044679103587e-05,-5.80673827036284e-05
-0.0016236544623169,0.00510084659462253,-2.54464663435135e-05,-6.84460603960257e-05
-0.0016088129048832,0.00509283572988723,-1.10311331257847e-05,-7.67906025360763e-05
-0.00159617671943764,0.00509041578116511,1.01546198621505e-06,-7.93305958024129e-05
-0.00158393392467105,0.00509207279038863,1.23354985509394e-05,-7.78070295411618e-05
-0.00157210836244275,0.00509436160888443,2.36268599374999e-05,-7.58732369073799e-05
-0.00156201133501597,0.00509507686466437,3.36946800899599e-05,-7.37838805606684e-05
-0.00155264148429879,0.00510118038065316,4.19200684929453e-05,-6.93102369081257e-05
-0.00154452333119651,0.00510934621747411,4.98144366816794e-05,-6.15840111026538e-05
-0.00153515348047933,0.00511815578449701,5.84479457895681e-05,-5.13234965975538e-05
-0.0015278459505943,0.00513013631881096,6.5629302914796e-05,-3.89682346918717e-05
-0.00152475842981091,0.00514738590403711,6.79337157209687e-05,-2.51709194966828e-05
-0.0015271187738847,0.00515794784772085,6.5034042904474e-05,-1.18656084404248e-05
-0.00153248319223423,0.00516850979140459,5.96788790604649e-05,-5.12789488825312e-07
-0.00153800258266941,0.00518156320938845,5.35374111163794e-05,9.74481716736193e-06
-0.00154478559164915,0.00519161255309657,4.58747001788929e-05,2.0330115512101e-05
-0.00155426273073332,0.00520014793873715,3.70175274904004e-05,3.08923134209626e-05
-0.00156055698159677,0.00521103174752186,3.0003386698871e-05,4.05245679963541e-05
-0.00156309613961554,0.00522146256097928,2.65004838304918e-05,4.96951438683888e-05
-0.00156728038592818,0.00522891314202029,2.30795912696904e-05,5.86234901455539e-05
-0.00157549390646779,0.00523413450921383,1.44340714686319e-05,6.51008843335019e-05
-0.00158950099882489,0.00523810417879249,-2.92091834194367e-07,6.65206933684146e-05
-0.0016061783794271,0.00523345501622289,-1.67240296381557e-05,6.31058929158425e-05
-0.00161981592296457,0.0052257540956589,-3.04699014884097e-05,5.67373725219374e-05
-0.00163031826199998,0.00521760017976762,-4.07656725695612e-05,4.7809724989447e-05
-0.00163754234537735,0.00520653755703792,-4.87995728338633e-05,3.61438129472977e-05
-0.00164430151249775,0.00519243509724349,-5.49529028787096e-05,2.40478951286355e-05
-0.0016483069448654,0.00518392355346224,-5.89732448159518e-05,1.50642581054394e-05
-0.00165046463313488,0.00517815382350408,-6.12053352251381e-05,9.74127684890725e-06
-0.00165157327959378,0.00517417223299576,-6.19558954572694e-05,5.55031002268322e-06
-0.00164915333087166,0.00516793758678064,-6.02698388582655e-05,9.49620005475216e-07
-0.00164510021478535,0.0051634433962967,-5.46658398622023e-05,-3.20913225312415e-06
-0.00163478861062459,0.00516177446614352,-4.49290642507636e-05,-5.95093532332625e-06
-0.00162194976937471,0.00515877039186778,-3.22634212389314e-05,-6.52872679876248e-06
-0.00160845527699323,0.00516221554054114,-1.7769887723609e-05,-2.61506847804666e-06
-0.00159252891495996,0.00517349274000482,-1.71527352736418e-06,7.80031499018927e-06
-0.00157566079948311,0.0051855328789671,1.53003149988735e-05,2.16003818606924e-05
-0.0015601635909178,0.00519408018553735,3.10333207996811e-05,3.13376310359413e-05
-0.00154938707050008,0.00519597561335418,4.23779125543978e-05,3.28003213604248e-05
-0.00154399881029122,0.00519123108334726,4.80662260046084e-05,2.91261979204415e-05
-0.00154222259177104,0.00518691570680831,5.04439246622655e-05,2.59413958837494e-05
-0.00153899201983166,0.0051859501115054,5.369376764764e-05,2.54116033016103e-05
-0.00153337726195915,0.00518603355801305,5.96590336184823e-05,2.6861941674598e-05
-0.00152814397383594,0.00518987209736538,6.58548884449074e-05,2.98447541492836e-05
-0.00152599820649613,0.00519106419033195,6.83295818420718e-05,3.34901683184277e-05
-0.00152810821104695,0.00519167215774489,6.61166211662045e-05,3.51968736075831e-05
-0.00153281697826487,0.00519101650661328,6.18354246468047e-05,3.32677395523611e-05
-0.00153790721523209,0.00518547327431877,5.80029651192216e-05,2.92595282956621e-05
-0.00154223451270071,0.00517814190257441,5.40809150822249e-05,2.46556759464891e-05
-0.0015473009078086,0.00517154962846933,4.77168269946863e-05,1.66687277107571e-05
-0.00155925760026321,0.00515593321060736,3.77752573098628e-05,9.49321393480517e-07
-0.00157269248799637,0.005129707165343,2.50058852605392e-05,-2.18082251545748e-05
-0.00158702144545445,0.00510745078965728,1.02018799416333e-05,-4.48181282263395e-05
-0.00160363922140832,0.00509161979506134,-6.9018602591005e-06,-6.07028381313376e-05
-0.0016251803413141,0.00508536130698689,-2.63204409290444e-05,-6.59308960751735e-05
-0.00164502868920736,0.00508914024169089,-4.61040803611412e-05,-6.07677004125723e-05
-0.00166084776287364,0.00510156185040246,-6.29758310197218e-05,-4.83710246013065e-05
-0.00167384157620916,0.00511547357532224,-7.50634637251638e-05,-3.46412215571981e-05
-0.00168300877112202,0.00512341291447955,-8.34068290507042e-05,-2.60425533003606e-05
-0.00168962488708644,0.0051223877145283,-8.99519538705743e-05,-2.5526307912907e-05
-0.00169329653342346,0.00511761934266206,-9.43084458579711e-05,-3.10424985432989e-05
-0.00169302235204115,0.00511069328252633,-9.37247293846905e-05,-3.82729652136198e-05
-0.001687073808138,0.00510361225030495,-8.65981136645269e-05,-4.40941855662707e-05
-0.00167444954362211,0.00509947568771098,-7.4609403396231e-05,-4.77994853981769e-05
-0.00165950069782142,0.00509814054358843,-6.04318249585158e-05,-5.0263610490166e-05
-0.00164505253106669,0.00509580404137397,-4.4746038862104e-05,-5.18967785071752e-05
-0.00162683735053762,0.00509699613434053,-2.72903148958978e-05,-5.09047925014978e-05
-0.00160981426297511,0.00510236055269006,-9.87467096914486e-06,-4.47864161091397e-05
-0.00159528264971272,0.00511379272423939,4.18778872498851e-06,-3.45539691601628e-05
-0.00158476838974764,0.00512349636098721,1.38510389193717e-05,-2.51680742597272e-05
-0.00157856950632152,0.0051284912305171,2.14014972041055e-05,-1.90915448727396e-05
-0.00156980762301729,0.00513708622080601,2.91425184479792e-05,-1.13947065964526e-05
-0.00156106958157239,0.00515428812231351,3.68229558780694e-05,4.56307325719955e-06
-0.00155557403299654,0.0051760676608126,4.30703640019349e-05,2.71509769202177e-05
-0.00155050763788865,0.00519578487847953,4.75216972602135e-05,4.65463829975071e-05
-0.00154714593572294,0.00520594151055464,5.03950775958855e-05,5.52315860394673e-05
-0.00154557237300708,0.00520473749665841,5.15169232260873e-05,5.41430489787602e-05
-0.00154526242883577,0.00519802601325667,5.10835842372359e-05,4.74379777946259e-05
-0.00154643067994301,0.00518837006022752,5.00440997589622e-05,3.6216739974015e-05
-0.0015476466147689,0.00517281324701388,4.83517140048962e-05,2.0610260491133e-05
-0.00155049571695898,0.00515675575475429,4.41520175867575e-05,4.36629011537403e-06
-0.00155806550729665,0.00514653951803085,3.64121223097072e-05,-7.035299950799e-06
-0.00156705388826453,0.00514287979262351,2.73327112832981e-05,-1.16537957805671e-05
-0.00157328853447965,0.00514234335078855,2.02002441431313e-05,-1.16531944446837e-05
-0.00157706746918365,0.00514528782041596,1.53711412159756e-05,-9.75945595934377e-06
-0.00158165702710492,0.00514949590858793,1.02434475085708e-05,-7.4515543697846e-06
-0.00158919105465359,0.00515074760620282,2.95134138643544e-06,-5.33006838045151e-06
-0.0015962601659453,0.00515360862932257,-5.79278358774365e-06,-2.9170484779944e-06
-0.00160486707716388,0.00515933067556206,-1.46947713099375e-05,8.21005706441259e-07
-0.00161324749071881,0.00516371757767901,-2.39740074373712e-05,4.8123450530326e-06
-0.00162359485766857,0.00516361028931202,-3.46980562012831e-05,5.35143842176381e-06
-0.00163531313152988,0.005160010168553,-4.68903730702349e-05,6.48573628698462e-07
-0.00164576778684662,0.00515581400131071,-5.87549110326875e-05,-5.514522084615e-06
-0.00165381441437092,0.00515310795027661,-6.73117501608431e-05,-7.25565095129896e-06
-0.00165609131193705,0.00515846044769647,-6.99182378074223e-05,-2.51624469096955e-06
-0.00165189514469475,0.00516841442396727,-6.59711194448869e-05,6.79563662483857e-06
-0.00164104709869904,0.00518180162798176,-5.72091833698191e-05,1.86140736405505e-05
-0.00162969837365737,0.00519378216229571,-4.58999671147093e-05,3.1130601771035e-05
-0.00161708603007114,0.00520302088278656,-3.30842860951971e-05,4.07526161109103e-05
-0.00160177955638048,0.00520768196628582,-1.9140946330167e-05,4.39963430097688e-05
-0.00158646116176016,0.00520709784073221,-5.13481819913013e-06,4.1685178987063e-05
-0.00157361039958062,0.00520123274333672,7.87718891211355e-06,3.8067693787848e-05
-0.00156085500483841,0.00519936115737922,2.04273045477403e-05,3.58086443610946e-05
-0.00154637107529468,0.00520129234798505,3.36862295943264e-05,3.48670222496627e-05
-0.00153228053642991,0.00520062477592377,4.67150846876842e-05,3.5599637442431e-05
-0.00152280339734575,0.00520309240836456,5.64051967707655e-05,3.87734032756545e-05
-0.00151798734176083,0.00520745546862218,6.09429154983209e-05,4.24274297546985e-05
-0.00151582965349136,0.00520994694292229,6.20092094663615e-05,4.32246499695549e-05
-0.00151412496054917,0.00520747931048151,6.24728540399557e-05,4.16254121553078e-05
-0.00151499518841476,0.00520480902223641,6.27898548907345e-05,4.1012465454298e-05
-0.00151559123489804,0.00520702631515421,6.09357923458691e-05,4.04669243728203e-05
-0.00151982316492934,0.00520051748755678,5.5619361877364e-05,3.38197636356159e-05
-0.00152758369014166,0.00518342287441628,4.84094007198878e-05,1.86823829626526e-05
-0.00153300771313952,0.00516620905197913,4.2259255425813e-05,1.4766802731974e-06
-0.00153607139206358,0.00515613586641168,3.83792375039538e-05,-1.04648339217398e-05
-0.0015400887453609,0.00514764816448976,3.50329006408666e-05,-1.77299388882261e-05
-0.00154432067539219,0.0051392081462865,2.93881215334111e-05,-2.54082827386644e-05
-0.00155358323774238,0.00513006479323296,2.00669218688618e-05,-3.47914374047514e-05
-0.00156642207899225,0.00512070686344545,7.50891942617051e-06,-4.4174755142611e-05
-0.00158118018991829,0.00511021644533971,-7.5645545734829e-06,-5.50316630294417e-05
-0.00159695157986591,0.00509337217172218,-2.47334933448741e-05,-7.03427222296211e-05
-0.00161557207200361,0.00507597953534004,-4.26710321705725e-05,-8.72583304582042e-05
-0.00163224945260581,0.00506669313113052,-5.87583974150683e-05,-9.79928216259886e-05
-0.00164289484279721,0.00506433278705673,-7.09887495051218e-05,-9.9194634653187e-05
-0.00165109644240716,0.00506730109854347,-7.9490416324995e-05,-9.51010221103313e-05
-0.00165814171183954,0.00507197410297239,-8.525413047096e-05,-8.99861155227774e-05
-0.00166064510706932,0.00508062869790963,-8.83000726835557e-05,-8.28077846329986e-05
-0.00165928612108744,0.00509021312536079,-8.83138506211592e-05,-7.18615782891261e-05
-0.00165785560952756,0.00509995252489761,-8.59914227383775e-05,-5.98791060069753e-05
-0.00165425548876855,0.00511091978018998,-8.17293139845712e-05,-5.04538042206597e-05
-0.00164463529852839,0.00511931211467457,-7.34231546329664e-05,-4.23649332623597e-05
-0.00162924537833007,0.00512753755614385,-5.79465902951471e-05,-3.15491228117541e-05
-0.00160746583983098,0.00514136583455597,-3.55038820335304e-05,-1.73373442688214e-05
-0.00158262262240783,0.00515632660128633,-1.09852372067588e-05,-3.45063705973094e-06
-0.00156211862338296,0.0051653507450432,9.72569101831041e-06,6.61916628777734e-06
-0.00154687175434063,0.00517020256341711,2.39405086765629e-05,1.29901396254682e-05
-0.0015393258058623,0.00517562658641497,3.28236330577408e-05,1.88818229775117e-05
-0.00153292426663186,0.00518575937663075,3.95493215821194e-05,2.8435606708712e-05
-0.00152323255081371,0.00520025522710414,4.72038962831532e-05,4.38631481950309e-05
-0.00151555547210905,0.00521745712861163,5.68269298191675e-05,6.27953261651333e-05
-0.00150597104465789,0.00523377688132387,6.65192387016833e-05,7.94052766887806e-05
-0.00149806746828958,0.0052448275831239,7.33321257272429e-05,8.99368002876996e-05
-0.00149582633351245,0.00524998934566911,7.63666376329525e-05,9.61081786746431e-05
-0.00149542102190381,0.00525277884321087,7.69183816869103e-05,0.000101447642525497
-0.00149692305904168,0.00525819094527906,7.56425324618288e-05,0.00010589741953479
-0.00150077351932368,0.00525898964756665,7.16130550507727e-05,0.000106489377585791
-0.00150741347714743,0.00525193245720461,6.48545602729314e-05,0.000102009299649333
-0.00151568660233537,0.00524308712739272,5.75672736899165e-05,9.38720452713175e-05
-0.00152157554159019,0.00523239405348265,5.12745050745846e-05,8.28742180083847e-05
-0.00152852544358524,0.00521761210069728,4.44686022556317e-05,6.81896096568213e-05
-0.00153806218731774,0.0051964882133298,3.49702973132425e-05,4.97961994035196e-05
-0.00155030498208433,0.00517553121897764,2.32982763529124e-05,2.93116144313664e-05
-0.00156242856755427,0.00515577823852171,1.15050359670965e-05,8.25949950433088e-06
-0.00157363424143995,0.00513319999773502,-5.55875467669658e-07,-1.19605297074091e-05
-0.00158928642209091,0.00511561662647823,-1.54349609908849e-05,-2.84509779472579e-05
-0.00160934934671815,0.00510522157580981,-3.44603187147083e-05,-3.84625783880171e-05
-0.00162926922018941,0.00510069162253687,-5.55904649003272e-05,-4.34047475379924e-05
-0.00164885530763002,0.00509442121353276,-7.50058981828286e-05,-4.78831639053676e-05
-0.00166494856267861,0.00508732826038171,-8.94381767338331e-05,-5.33682769376967e-05
-0.00167142162748704,0.00508533746512756,-9.69743973270239e-05,-5.61680974561905e-05
-0.00167166004608035,0.00508716136736639,-9.73375631849258e-05,-5.37589597794981e-05
-0.00166754732534571,0.00508923560912821,-9.21595818702555e-05,-4.96676792831256e-05
-0.00165944109317309,0.00508973628817417,-8.40015526811815e-05,-4.86569287471005e-05
-0.00164928446109798,0.0050894144230732,-7.43994544432164e-05,-4.96887336865989e-05
-0.00163844833603193,0.0050897243672445,-6.32264155013596e-05,-4.80152538933789e-05
-0.00162607441103902,0.00509283572988723,-4.99766439641815e-05,-4.29304970397604e-05
-0.00161046991410672,0.00509829551567409,-3.49557732839387e-05,-3.8752047790987e-05
-0.0015943885799878,0.00509864122263439,-1.90940018246526e-05,-3.79671705184903e-05
-0.00157953510162444,0.00509592325067063,-3.2827320346321e-06,-3.76939512977043e-05
-0.00156416902328545,0.00510112077600484,1.18666050995912e-05,-3.41836613221347e-05
-0.00154976854024938,0.0051076534454616,2.60054986652539e-05,-2.74482798193517e-05
-0.00153712043387416,0.00511277944521781,3.88379153718911e-05,-1.98890637650136e-05
-0.00152653464833108,0.00511981279372053,4.97458308007417e-05,-1.31505102899532e-05
-0.00151842841615846,0.00512567789111602,5.80310937084935e-05,-7.94311342227521e-06
-0.00151169309089739,0.00512861043981376,6.38535292707712e-05,-4.49157543416172e-06
-0.00150834330966135,0.00512861043981376,6.81627900160335e-05,-1.52380409821809e-06
-0.00150516042144063,0.00513536960693417,7.10449318626832e-05,2.89112940278793e-06
-0.0015051008167923,0.00514067442063537,7.11810155851114e-05,8.08581371330113e-06
-0.00150759229109241,0.00514152080664163,6.81787430037517e-05,1.11047785456509e-05
-0.00151178845833471,0.0051414254392043,6.43394880308162e-05,1.19141887135377e-05
-0.00151444682565015,0.00514649183431219,6.19745424174223e-05,1.47469733375386e-05
-0.00151633033253731,0.00515310795027661,5.93498895380678e-05,2.12142197574134e-05
-0.00152366170428167,0.00515364439211156,5.18548142981826e-05,2.55884136241843e-05
-0.00153844365706704,0.00515104562944446,3.78552931515959e-05,2.17802562353459e-05
-0.00155420312608499,0.00514564544830593,2.11430657151707e-05,1.29323468269616e-05
-0.00156930694397133,0.00513756305799264,6.25718264852532e-06,8.48534590359021e-06
-0.00158201465499488,0.00513926775093482,-6.81053333820416e-06,1.21592148107584e-05
-0.00159653434732761,0.00514963895974391,-2.13082174148093e-05,1.82294752855756e-05
-0.0016134263046638,0.0051505449503985,-3.80958314996009e-05,2.01063173901042e-05
-0.00162783870862953,0.00514463216928435,-5.35089402116519e-05,1.69981755641501e-05
-0.00163797149884531,0.00513939888116115,-6.31713384069196e-05,1.05276826013624e-05
-0.00164136896380001,0.0051307800490129,-6.66667001734726e-05,5.70311398533303e-07
-0.00164141664751867,0.00511781007753671,-6.77292980150038e-05,-1.18785238097681e-05
-0.00164445648458341,0.00510516197116148,-7.01432233627638e-05,-2.19881711110106e-05
-0.0016475797681558,0.0051038745107576,-7.38439887576381e-05,-2.57665001128752e-05
-0.00164821157742808,0.00510429174329589,-7.51758353839018e-05,-2.50854704867344e-05
-0.00164458761480973,0.00510392219447626,-7.08951860875824e-05,-2.43980106715542e-05
-0.00163421640600064,0.00510356456658629,-6.14386235566176e-05,-2.47033757784952e-05
-0.00162230739726468,0.00510431558515522,-4.99167484893856e-05,-2.44877870508242e-05
-0.00161136398383164,0.00510411292935091,-3.86931793279583e-05,-2.43035205384042e-05
-0.00159991989135265,0.00510286123173602,-2.80682413405461e-05,-2.54849678835291e-05
-0.00158973941741821,0.00510256320849438,-1.76675455482362e-05,-2.51649334943075e-05
-0.00157810459006456,0.00511077672903399,-7.16265874666735e-06,-1.75394138086024e-05
-0.00156705388826453,0.00512669117013759,4.53076931304725e-06,-9.23387893443832e-07
-0.00155211696339351,0.00514729053659979,1.85735832348269e-05,1.989531747166e-05
-0.00153675088505452,0.00516693622868873,3.37056303367315e-05,3.88591262937238e-05
-0.00152393588566398,0.00517957241413429,4.62378393621045e-05,5.30181806985936e-05
-0.00151602038836601,0.0051881674044232,5.38921752603063e-05,6.14709143174139e-05
-0.00151132354207775,0.00519139797636258,5.81649305714142e-05,6.39121027934657e-05
-0.00150755652830342,0.00518841774394618,6.15455247635856e-05,6.19422350614253e-05
-0.00150492200284731,0.00518409044647756,6.4132572252673e-05,5.87941844287801e-05
-0.00150334844013145,0.0051817181814741,6.48331407544849e-05,5.55916657204749e-05
-0.0015043378772937,0.00517652065613989,6.40266325461784e-05,4.98549612709871e-05
-0.00150555381211959,0.00516419441486564,6.22385428513503e-05,3.9514645546803e-05
-0.0015099883979552,0.00515074760620282,5.75311365705845e-05,2.6675911012219e-05
-0.00151897677892308,0.00514167577872728,4.78307161923546e-05,1.55826483558567e-05
-0.00153139838763466,0.0051326516349704,3.55783228199542e-05,8.18855449265614e-06
-0.0015403986895322,0.00512664348641893,2.62429859603558e-05,3.41198958546627e-06
-0.0015442491498142,0.00512354404470587,2.13271446514573e-05,-4.804715101956e-07
-0.00154964933095272,0.00511955053326789,1.6221199687777e-05,-4.71310228851544e-06
-0.00155894765609191,0.00511252910569484,6.44470437970434e-06,-1.05165070453977e-05
-0.00157208452058342,0.00510367185495328,-7.10030385936223e-06,-1.87670907821894e-05
-0.0015856505385429,0.00509450466004042,-2.10005906609926e-05,-2.88041066109698e-05
-0.00159807214725448,0.00508414537216099,-3.42922294485548e-05,-3.8645444811985e-05
-0.00161180505822927,0.00507527620048977,-4.74944052399701e-05,-4.65725010892655e-05
-0.00162255773678766,0.00507043630304553,-5.88876099609577e-05,-5.18662567006689e-05
-0.00162814865280084,0.00506839782407271,-6.53813466501261e-05,-5.39707700630035e-05
-0.00162850628069081,0.00506988794028091,-6.62462725495023e-05,-5.16896604473253e-05
-0.00162633667149166,0.00507773191200089,-6.29560731964219e-05,-4.38708692050853e-05
-0.00161778936492141,0.00509134561367903,-5.5978252331415e-05,-3.10702007996112e-05
-0.00160558233294382,0.00510523349673948,-4.48130882250716e-05,-1.61709362163161e-05
-0.00159239778473364,0.00511847764959798,-3.09658359408518e-05,-2.60499350845215e-06
-0.00157977352021775,0.00513099462574688,-1.77333630785919e-05,8.25993265704166e-06
-0.00156580219064964,0.0051391366207085,-6.72037457196428e-06,1.72894078553298e-05
-0.00155743369802437,0.00514621765292988,2.6277653852967e-06,2.50583206399951e-05
-0.00155071029369296,0.00515307218748761,9.76207941629349e-06,3.05382714162001e-05
-0.00154614457763103,0.00515610010362268,1.25857958142127e-05,3.30378287774918e-05
-0.00154753932640191,0.00515570671294371,1.14086794255701e-05,3.37429397233406e-05
-0.00154792079615121,0.005156266996638,1.03377227298624e-05,3.36259318594239e-05
-0.00154520282418745,0.00515521795482742,1.28610246022066e-05,3.11590699150682e-05
-0.00153979072211926,0.0051474931924041,1.82136354712467e-05,2.43748121409981e-05
-0.00153341302474815,0.00513876707188887,2.37312628501916e-05,1.44780326323796e-05
-0.00152776250408664,0.00512937337931236,2.84881259332737e-05,5.16036311019055e-06
-0.00152425775076495,0.00512380630515851,3.25188760194906e-05,-1.20353715573435e-06
-0.0015221596671438,0.00512108833319475,3.45387631406817e-05,-4.65148702844555e-06
-0.0015218497229725,0.00511984855650953,3.31404520715817e-05,-5.98468593921477e-06
-0.00152571210418416,0.00511941940304157,2.90726889699489e-05,-6.96300175590191e-06
-0.00153168448994663,0.00511575967763422,2.40264718458044e-05,-1.13868500226583e-05
-0.00153639325716455,0.00510596067344908,1.83109595212222e-05,-2.21188809139575e-05
-0.00154126891739779,0.00509164363692067,1.20709051655106e-05,-3.65558057716141e-05
-0.00154626378692769,0.00507999688863736,7.49660127599068e-06,-4.8595724966055e-05
-0.00154724130316027,0.00507390529357822,6.63061203998759e-06,-5.58859799081836e-05
-0.00154627570785735,0.00506910115892298,7.24917467594491e-06,-6.15466658839934e-05
-0.00154765853569856,0.00506262809411455,3.97513859326379e-06,-6.77271084657263e-05
-0.00155837545146796,0.00505968362448714,-5.91668159637006e-06,-7.16683584080869e-05
-0.00157295474844901,0.00506191283833461,-1.99550700123582e-05,-7.03779125884673e-05
-0.00158571014319123,0.00506746799155879,-3.39638390372252e-05,-6.54066735759886e-05
-0.00159596214270366,0.00507299930292364,-4.57712476376343e-05,-5.99644366128332e-05
-0.00160696516078503,0.00507892400496745,-5.49086509235133e-05,-5.43590767078793e-05
-0.0016126276023762,0.0050874713115377,-6.09960119693428e-05,-4.74553639363016e-05
-0.00161364088139778,0.00509518415303136,-6.37241419787968e-05,-3.97651081642964e-05
-0.00161316404421115,0.00510277778522836,-6.30151718348449e-05,-3.14006102996851e-05
-0.00160931358392916,0.00511647493341416,-5.83107356060299e-05,-1.94720819218472e-05
-0.00159926424022104,0.00513471395580256,-4.8948040837805e-05,-1.92990052581902e-06
-0.00158499488741129,0.00515280992703497,-3.58338550718674e-05,1.74194062540217e-05
-0.00157140502759248,0.00516823561002228,-2.13515969548126e-05,3.20101653129762e-05
-0.00155693301897842,0.00517731935842749,-6.98508759249388e-06,3.99892526265204e-05
-0.00154180535923274,0.00518156320938845,7.54684927085728e-06,4.49482682670365e-05
-0.00152724990411102,0.00518653423705901,2.21641356800751e-05,5.00548122308047e-05
-0.00151436337914249,0.00519199402284587,3.50248409452764e-05,5.54760844740039e-05
-0.00150511273772196,0.00519882471554427,4.42753494475013e-05,6.11860575363038e-05
-0.00149912843102982,0.00520441563155744,5.00539153286834e-05,6.79647653626728e-05
-0.00149562367770813,0.00521038801731992,5.39255591352946e-05,7.51162906134224e-05
-0.00149180898021513,0.00521812470067291,5.72994349154231e-05,8.10102609852029e-05
-0.00148825654317478,0.00522296459811715,6.07368686387242e-05,8.64636984147897e-05
-0.00148646840372493,0.00522767336533507,6.33048629493122e-05,9.3780112907198e-05
-0.00148752936646517,0.00523693592768526,6.22010630342759e-05,0.000101643749396248
-0.00149339446386066,0.00524050028565528,5.51586794707241e-05,0.000105007775122749
-0.00150554189118993,0.00523465903011912,4.43473059697864e-05,0.000101509981108472
-0.0015145302721578,0.0052265527979465,3.56922320044298e-05,9.40916287226075e-05
-0.00151700982552825,0.00521870882622652,3.25017160525154e-05,8.52389509305445e-05
-0.00151752242550388,0.00520435602690911,3.16644736245693e-05,7.26000509847316e-05
-0.00152224311365146,0.00518380434416558,2.84122295296791e-05,5.36370820514652e-05
-0.00152775058315698,0.00516204864752583,2.30380557497715e-05,3.17429324981079e-05
-0.00152945527609916,0.00514316589493548,1.96064381004708e-05,1.36832565007528e-05
-0.00153230437828925,0.00512969524441333,1.87202557460775e-05,1.97893238869086e-06
-0.00153573760603294,0.00512046844485214,1.53332138147369e-05,-7.07327713997664e-06
-0.00154550084742909,0.00510752231523528,4.81787477210256e-06,-1.82762748378282e-05
-0.00156228551639828,0.00509252578571592,-1.14368504329818e-05,-3.28041292879972e-05
-0.00157980928300674,0.00507601529812904,-2.81037977317238e-05,-4.8233582838512e-05
-0.00159275541262361,0.00506132871278099,-4.19305018141542e-05,-6.13576312725377e-05
-0.00160535583528017,0.00505079061095659,-5.39172618110633e-05,-7.10504541232942e-05
-0.00161814699281138,0.00504184991370737,-6.61898022963976e-05,-7.93493195518694e-05
-0.00162998447596934,0.00503029853286138,-7.82337023283504e-05,-8.89892857053987e-05
-0.00163774500118166,0.00501945048686567,-8.65468610634491e-05,-9.91364545048827e-05
-0.00164028415920044,0.00501314431507255,-8.75973261431945e-05,-0.000105057752098743
-0.00163327465255705,0.00501215487791031,-8.09286402416278e-05,-0.000103121974367327
-0.00162084112291581,0.00502181083093946,-6.92258320696435e-05,-9.43445006103796e-05
-0.00160760889098697,0.00503281384902083,-5.54230543406574e-05,-8.1828333435397e-05
-0.00159379253350452,0.00504515201122475,-4.05667365696812e-05,-6.74896687133606e-05
-0.00157721052033964,0.00505881339662155,-2.50153519239497e-05,-5.36173552078888e-05
-0.00156242856755427,0.00506783754037842,-1.04012077744277e-05,-4.42744918318938e-05
-0.0015510440797236,0.00506988794028091,1.46792803483265e-06,-4.04867674996432e-05
-0.00154216298712271,0.00507348806103993,1.12060957631486e-05,-3.58937620297607e-05
-0.00153125533647867,0.00508588582789217,2.1043163520001e-05,-2.29759971881146e-05
-0.00152040729048296,0.00510535270603613,3.08171909624786e-05,-3.9389538765693e-06
-0.00151698598366892,0.0051167014310778,3.68138056576346e-05,1.00091199300753e-05
-0.00151628264881865,0.00511866838447263,3.61102238271691e-05,1.19714710254129e-05
-0.0015202880811863,0.005114448375371,3.10317713817446e-05,7.3060695300112e-06
-0.00152465114144392,0.00511145622202493,2.78147395404665e-05,5.82025281349726e-06
-0.00152127751834855,0.00511573583577489,3.10556548604182e-05,1.03984393222408e-05
-0.00151178845833471,0.00512198240291967,4.00193301971396e-05,1.70390853288073e-05
-0.00150147685417395,0.0051277998165965,4.95797065721324e-05,2.25891883471231e-05
-0.00149817475665657,0.00513167411873782,5.39322544750688e-05,2.73940944962718e-05
-0.00150032052399638,0.00513629943944808,5.03587516426592e-05,3.18452625020668e-05
-0.00151052483979016,0.00513962537882479,4.09716010755219e-05,3.52673682434372e-05
-0.00151969203470302,0.00514225990428089,3.08527092202203e-05,3.83737498554267e-05
-0.00152651080647175,0.00514780313657541,2.35530069186456e-05,4.30365860461183e-05
-0.00153214940620359,0.00515316755492494,1.82825332626254e-05,4.9091250060891e-05
-0.00153851518264503,0.00515888960116444,1.18109244058147e-05,5.42899788902218e-05
-0.00154635915436501,0.00516169101963586,2.44317624570884e-06,5.75273260262394e-05
-0.00155793437707033,0.00516473085670059,-8.7066580229213e-06,5.9019429688242e-05
-0.00156877050213638,0.00516228706611914,-1.95322594695399e-05,5.73076593685941e-05
-0.00157703170639465,0.00515532524319441,-2.84407741315723e-05,5.00749381567955e-05
-0.0015818358410499,0.00514506132275232,-3.43167013758943e-05,3.90349777580617e-05
-0.00158482799439597,0.00513674051384571,-3.68480829076738e-05,2.99780504682912e-05
-0.00158517370135627,0.00513256818846275,-3.74940289338576e-05,2.56160474740016e-05
-0.00158559093389457,0.00512847930958744,-3.87403808661877e-05,2.16168738386498e-05
-0.00158779630588271,0.0051201704216105,-4.14311064992767e-05,1.25528084331134e-05
-0.00158979902206653,0.00510873825006117,-4.35891914743152e-05,-9.52081068978549e-07
-0.00158895263606028,0.00509420663679878,-4.25670435503125e-05,-1.42492943988637e-05
-0.00158262262240783,0.0050833466698734,-3.76755160289753e-05,-2.54159688844075e-05
-0.00157521972508548,0.00507494241445913,-3.01287944222448e-05,-3.58006062415641e-05
-0.0015662313441176,0.00506680041949751,-2.13093550016124e-05,-4.50234768473283e-05
-0.00155637273528413,0.00506029159190009,-1.20878143325588e-05,-4.99644947957217e-05
-0.00154721746130094,0.0050619843639126,-3.3362961909914e-06,-4.93102732165966e-05
-0.00153987416862691,0.00506815940547939,3.94427217725542e-06,-4.58378966579112e-05
-0.0015339494665831,0.00506982833563258,9.0674403925314e-06,-4.33436024030307e-05
-0.00153118381090068,0.00506874353103301,1.19722450773282e-05,-4.35358465509293e-05
-0.00152922877843551,0.00506879121475167,1.36091068399583e-05,-4.59022774679089e-05
-0.00152583131348081,0.00506751567527745,1.62215427440844e-05,-4.79215170801881e-05
-0.00152003774166332,0.00506917268450097,2.19500994729579e-05,-4.56305765135037e-05
-0.00151226529552134,0.00507723123295493,3.00086885658985e-05,-3.75764608186386e-05
-0.00150501737028464,0.00508770973013101,3.63082282981756e-05,-2.86144160790371e-05
-0.00150346764942811,0.00509154826948334,3.76389300845741e-05,-2.56141621951509e-05
-0.00150560149583825,0.00508780509756834,3.57181681459165e-05,-2.79602339305328e-05
-0.0015058637562909,0.00508973628817417,3.51317691317541e-05,-2.67280659084974e-05
-0.00150336036106112,0.00510201484572976,3.73386247780631e-05,-1.6088569698887e-05
-0.00150134572394763,0.00511537820788492,3.88944351206989e-05,-1.4729939250346e-06
-0.00150458821681668,0.00512481958418009,3.6148345060838e-05,7.72008075518444e-06
-0.00151100167697678,0.00512788326310416,2.94779186764881e-05,1.03486801914336e-05
-0.00151804694640916,0.00513100654667655,2.15832168237333e-05,1.32129780932132e-05
-0.00152691611808038,0.00513718158824334,1.35133698316167e-05,2.03519300805403e-05
-0.00153574952696261,0.00514636070408587,4.43920134559738e-06,2.8676074848373e-05
-0.00154529819162477,0.00515145094105309,-5.74681833697912e-06,3.43451405371595e-05
-0.00155599126553483,0.00515418083394652,-1.59346336834985e-05,3.74489802296728e-05
-0.0015658498743683,0.00515501529902311,-2.56686147027308e-05,3.82724251341684e-05
-0.00157483825533618,0.0051509621829368,-3.5341274332376e-05,3.42815865056566e-05
-0.00158364782235907,0.00514121086247032,-4.39430308677248e-05,2.50989291090687e-05
-0.00158889303141195,0.00513217479778378,-4.82903489102033e-05,1.73803211410458e-05
-0.00158505449205962,0.00513598949527678,-4.57887461535929e-05,1.96485684348168e-05
-0.00157737741335496,0.00514706403893614,-3.75545372557852e-05,3.23336417996962e-05
-0.00156835326959808,0.00515972406624103,-2.79936120241933e-05,4.62536824994898e-05
-0.00156111726529105,0.00516610176361214,-2.11012089983616e-05,5.17276723313221e-05
-0.00155664691666644,0.00516099960571525,-1.71488774359021e-05,4.74467764524591e-05
-0.00155334481914907,0.00515229732705935,-1.2970119020504e-05,4.01236878313504e-05
-0.00154601344740471,0.00514925748999461,-5.7825949540884e-06,3.70107592117935e-05
-0.00153701314550717,0.00515075952713248,3.17355220472845e-06,3.92327282337012e-05
-0.00153024205745709,0.005152416536356,9.45574080431766e-06,4.13786623799117e-05
-0.00153028974117576,0.00514737398310745,1.03324385025485e-05,3.71883691142329e-05
-0.00153248319223423,0.00513582260226146,8.06914111911732e-06,2.61505974168673e-05
-0.00153230437828925,0.00512350828191687,7.40664186506698e-06,1.44272904234024e-05
-0.00152999171793411,0.00511730939849075,1.05015905482974e-05,8.77238188047213e-06
-0.00152491340189656,0.00511804849613002,1.56535779610135e-05,1.00326602124711e-05
-0.00151972779749202,0.00512086183553111,2.04362178990827e-05,1.34160186458803e-05
-0.00151597270464734,0.00512050420764114,2.42327176281441e-05,1.42595789468912e-05
-0.00151275405363763,0.00511883527748795,2.75820710855484e-05,1.17755959768827e-05
-0.00150949963983891,0.00511325628240444,3.08356678511492e-05,7.43532972479226e-06
-0.00150603064930622,0.00510711700362664,3.40786519812901e-05,2.13555591674379e-06
-0.00150301465410081,0.00510127574809049,3.69258658280002e-05,-3.83026798935892e-06
-0.00150251397505486,0.00509554178092133,3.77910008839943e-05,-9.6856501910809e-06
-0.00150455245402768,0.00508918792540955,3.49566422460666e-05,-1.48985017677116e-05
-0.00151066789094614,0.00508360893032604,2.93633428185699e-05,-2.02827731986677e-05
-0.00151485213725878,0.00507757693991524,2.47800032600376e-05,-2.66351694417849e-05
-0.00151547202560139,0.00507125884719246,2.35870160447291e-05,-3.25479239538232e-05
-0.00151613959766266,0.00506831437756505,2.32596737168536e-05,-3.54995228235409e-05
-0.00152083644395092,0.00506781369851909,1.86201374221046e-05,-3.55597962397447e-05
-0.00153083810394037,0.00506750375434779,7.19711346865732e-06,-3.61167028284247e-05
-0.00154752740547224,0.00506453544286105,-8.81590427528081e-06,-3.95942354329989e-05
-0.00156414518142612,0.00506012469888477,-2.53374276824133e-05,-4.38729202505048e-05
-0.00157700786453532,0.00505838424315359,-3.97141725281055e-05,-4.50454223944843e-05
-0.00158926258023158,0.00506143600114799,-5.16251026978231e-05,-4.31276581188205e-05
-0.00159997949600097,0.00506265193597388,-6.2182695922332e-05,-4.24598283094869e-05
-0.00160890827232053,0.00505875379197322,-7.2251435105175e-05,-4.58928225150767e-05
-0.00161685953240749,0.00505398542010697,-8.06860899675741e-05,-5.11654258161927e-05
-0.00162143716939909,0.00505083829467525,-8.44479934545947e-05,-5.48302376469987e-05
-0.00161689529519649,0.00504952699241203,-8.15045283356619e-05,-5.76353939132972e-05
-0.00160809764910326,0.00504366189501654,-7.3161967431938e-05,-6.28436120608163e-05
-0.00159796485888749,0.00503666430930282,-6.21166652213939e-05,-6.98235787216134e-05
-0.00158293256657914,0.00503585368608556,-4.87160220168879e-05,-7.29364709636758e-05
-0.00156487235813572,0.00504121810443509,-3.13782905500914e-05,-6.80761502354068e-05
-0.00154552468928842,0.00505063563887093,-1.10357710040133e-05,-5.76096251475074e-05
-0.00152566442046549,0.00506298572200452,7.33690887524582e-06,-4.66440317667378e-05
-0.00151321896989459,0.00507555038187208,1.92820346748847e-05,-3.61912127837872e-05
-0.00150675782601582,0.00508854419520761,2.55695565369886e-05,-2.28724163471207e-05
-0.00150144109138495,0.00510597259437874,3.06929897495893e-05,-4.83180383783908e-06
-0.00149393090569561,0.00512822897006446,3.75227158970262e-05,1.50266477859917e-05
-0.00148541936191436,0.00514690906685049,4.50931894005203e-05,3.25055488399126e-05
-0.00147959002730787,0.00515972406624103,5.1086643936549e-05,4.65363161193968e-05
-0.0014761806414235,0.00517313511211485,5.44415336499513e-05,5.84094962698445e-05
-0.00147401103222436,0.00518343479534595,5.51436195534231e-05,6.77852936575924e-05
-0.00147581109260387,0.00518829853464952,5.3254714046427e-05,7.1729091705124e-05
-0.00148007878542416,0.00518409044647756,4.94621340518221e-05,6.8289615909141e-05
-0.00148249873414628,0.00517777235375478,4.57377417936271e-05,5.98542701685605e-05
-0.0014838457991985,0.00516892702394289,4.38713132594358e-05,5.18294314293964e-05
-0.00148514518053205,0.00516643554964277,4.31935996027033e-05,4.79903300196972e-05
-0.00148628958977995,0.0051672580937897,4.10287345354896e-05,4.77614098166328e-05
-0.00149080762212322,0.00516588718687816,3.6141833798493e-05,4.8245289635492e-05
-0.00149631509162874,0.00516775877283566,3.06243044881929e-05,4.81109236424387e-05
-0.00150011786819207,0.00516904623323954,2.67421579019264e-05,4.84516378872266e-05
-0.00150371798895109,0.00516929657276252,2.23486998299126e-05,4.99447209098403e-05
-0.0015141845651975,0.00516988069831614,1.18886788559777e-05,5.05813791627667e-05
-0.00153296002942085,0.00516778261469499,-6.81611833294047e-06,4.72931737916241e-05
-0.00155463227955295,0.00516051084759896,-2.86357918667147e-05,3.94042958116844e-05
-0.00157095203226519,0.00514881641559699,-4.60067248786029e-05,2.9475787962631e-05
-0.00158244380846285,0.00513983995555877,-5.6615829842386e-05,2.06615919094439e-05
-0.00158966789184021,0.00513503582090353,-6.38401343198849e-05,1.39071446779681e-05
-0.00159492502182275,0.00512809783983814,-7.01820000590583e-05,7.94069368806257e-06
-0.00159864435187843,0.00511930019374491,-7.33726936517126e-05,1.48471178937305e-06
-0.00159513959855673,0.00511468679396431,-6.97574774585277e-05,-4.94987375663515e-06
-0.00158468494323998,0.00511039525928469,-5.89844833427845e-05,-9.34698178427091e-06
-0.00156828174402009,0.00510736734314962,-4.39368127609959e-05,-9.96866478576274e-06
-0.00155360707960171,0.00511096746390864,-2.7938244587876e-05,-6.81019822265856e-06
-0.00153909930819865,0.00511604577994619,-1.35446536876026e-05,-1.65316023782522e-06
-0.00152755984828233,0.00511916906351859,-2.4297155932592e-06,2.70067859391404e-06
-0.00152012118817098,0.00511958629605688,5.50990059396012e-06,3.27981812467985e-06
-0.00151288518386395,0.00511378080330973,1.22414977270277e-05,-1.54215204044436e-06
-0.00150679358880482,0.00510457784560787,1.9525474891121e-05,-9.82495256305217e-06
-0.00149824628223457,0.0050984981714784,2.74631756930191e-05,-1.59058134904368e-05
-0.00148985394774997,0.00509895116680569,3.57654447180767e-05,-1.47132576982726e-05
-0.00148143777140604,0.00510439903166288,4.48299635607227e-05,-7.09835830443029e-06
-0.00147230633928218,0.00511300594288146,5.41211111230096e-05,5.9561322103588e-07
-0.00146571406517709,0.00511398345911404,6.09856100970993e-05,3.09311692783678e-06
-0.00146300801414299,0.00511072904531533,6.29963458852621e-05,8.02889869456841e-07
-0.00146646508374602,0.00510655671993236,6.04983398702651e-05,-2.97077483492854e-06
-0.00147230633928218,0.00510101348763785,5.52203773329706e-05,-7.11726338815201e-06
-0.00147907742733225,0.00509523183675002,4.77455255798079e-05,-1.25964845412015e-05
-0.00148847111990876,0.00508869916729326,3.85558347871136e-05,-1.87119524269887e-05
-0.0014975071845953,0.00508232146992215,3.03024840362618e-05,-2.29051602433593e-05
-0.00150209674251656,0.00508114129788526,2.59733660591238e-05,-2.45414538834385e-05
-0.00150256165877352,0.00507884055845979,2.48466858652805e-05,-2.61675655301177e-05
-0.00150519618422962,0.00507292777734564,2.26767729825456e-05,-2.99875731675855e-05
-0.00151275405363763,0.00506900579148565,1.59562615617903e-05,-3.50042421794381e-05
-0.00152424582983529,0.00506360561034713,3.9973421116569e-06,-3.86420046048967e-05
-0.00154061326626618,0.00506155521044464,-1.25804500684233e-05,-3.94908970065993e-05
-0.00156135568388436,0.00506467849401703,-3.22738634286298e-05,-3.73098395735057e-05
-0.00157986888765507,0.00506917268450097,-5.12091598620491e-05,-3.20639928199878e-05
-0.00159304151493558,0.00507347614011026,-6.44945344567391e-05,-2.49337400584619e-05
-0.00159991989135265,0.00508083135371395,-7.07803593752557e-05,-1.94764179940731e-05
-0.0016027809144724,0.00508047372582398,-7.35662527368948e-05,-1.95820026409821e-05
-0.00160532007249117,0.00507235557272169,-7.66402226608822e-05,-2.56321796898708e-05
-0.0016087771420942,0.00506417781497108,-7.9798949458941e-05,-3.35966012872466e-05
-0.0016099930769201,0.00506008893609577,-8.00811248720784e-05,-3.84181031372968e-05
-0.00160415182138394,0.00506069690350872,-7.54475067654604e-05,-3.79519462354822e-05
-0.00159485349624476,0.00506304532665284,-6.60106733842446e-05,-3.3636911345326e-05
-0.00158278951542315,0.00506849319151003,-5.3306164229072e-05,-2.818082075134e-05
-0.00156949767884598,0.00507487088888114,-3.97798893331709e-05,-2.32285582080848e-05
-0.00155594358181617,0.00507879287474113,-2.75747283394176e-05,-1.87371451197409e-05
-0.00154523858697644,0.00508303672570209,-1.63730085348022e-05,-1.341277062698e-05
-0.00153325805266249,0.00509064227882876,-3.68750237823907e-06,-5.46440067346584e-06
-0.00151791581618284,0.00510395795726526,1.12993744465207e-05,5.88135933449243e-06
-0.00150247821226586,0.00511683256130413,2.54224524044472e-05,1.8630028198608e-05
-0.00149405011499227,0.00512392551445517,3.46062631477494e-05,2.87342369135307e-05
-0.00149132022209884,0.00513167411873782,3.82064116416481e-05,3.40996320906104e-05
-0.00148934134777435,0.00513618023015143,3.87543630998084e-05,3.73060265422293e-05
-0.00148895987802505,0.00513999492764443,3.84881662782771e-05,4.24500475644428e-05
-0.00149044999423325,0.0051467302529055,3.81053582428917e-05,4.96541729197337e-05
-0.00149034270586626,0.00515339405258858,3.82952585149417e-05,5.52368002844311e-05
-0.00148662337581059,0.00515748293146389,4.02695381515993e-05,5.75041247478527e-05
-0.00148274907366926,0.00515810281980651,4.44566118915534e-05,5.91936033437764e-05
-0.001478052227381,0.00516040355923197,5.00559130842064e-05,6.28450128883583e-05
-0.00147076853935531,0.005167675326328,5.60818333564305e-05,6.68259093170554e-05
-0.00146441468384353,0.00516922504718453,6.17965382722581e-05,6.81961126196738e-05
-0.00146111258632616,0.00516632826127578,6.61474201988918e-05,6.68722077273217e-05
-0.0014580131446131,0.0051649692752939,6.78648238890731e-05,6.4105027873903e-05
-0.00145972975848495,0.00516107113129324,6.61204768275964e-05,5.89591272637688e-05
-0.00146620282329338,0.00515178472708373,6.01474495049748e-05,4.95800032731734e-05
-0.00147638329722782,0.00513856441608455,4.85225662694357e-05,3.66247041046352e-05
-0.00149433621730424,0.00512580902134234,3.03892512581084e-05,2.25695064924291e-05
-0.00151778468595652,0.00511248142197617,7.85929268794503e-06,8.99365427331064e-06
-0.00153812179196607,0.00510143072017614,-1.39926432212386e-05,-2.84020210940467e-06
-0.00155426273073332,0.0050935748275265,-3.04603846204254e-05,-1.09587276114792e-05
-0.00156406173491846,0.00508933097656554,-4.04091021983346e-05,-1.59195870712296e-05
-0.0015704275113599,0.00508238107457048,-4.62813274288178e-05,-2.29581644971101e-05
-0.00157444486465721,0.00507016212166322,-5.17099768268847e-05,-3.63094938448853e-05
-0.00158092985039531,0.00505433112706727,-5.91452797413318e-05,-5.29608782401328e-05
-0.00159188518475802,0.00503978759287522,-6.84747778212239e-05,-6.69960305406614e-05
-0.00159842977514444,0.00502915412361348,-7.67537958515724e-05,-7.83476816427669e-05
-0.00160027751924262,0.00501853257528142,-7.9597826643361e-05,-9.06983223004257e-05
-0.00159602174735199,0.00500706464094309,-7.40748906872428e-05,-0.000101608281992408
-0.00158137092479294,0.00500611096656984,-6.10020421349589e-05,-0.000103074922175318
-0.00156430015351177,0.00501610070562963,-4.4359696289719e-05,-9.36401139284863e-05
-0.00154824266125218,0.0050289395468795,-2.82048008552485e-05,-8.16543694823134e-05
-0.00153386602007544,0.00503853589526033,-1.41322315956511e-05,-7.24844332729199e-05
-0.001519942374226,0.00505120784349488,-1.69928843776164e-06,-5.99491673391924e-05
-0.00150934466775326,0.00507423907960886,9.24832498696006e-06,-3.66163922538831e-05
-0.00150097617512799,0.00510560304555911,1.7611682188794e-05,-7.00640827409171e-06
-0.00149490842192819,0.00512955219325734,2.26365446592239e-05,1.68049607749043e-05
-0.00149075993840456,0.00514179498802394,2.54927320149823e-05,2.95865311392484e-05
-0.00148906716639204,0.00514819652725437,2.81841848690605e-05,3.6044446509623e-05
-0.00148584851538232,0.00515527755947575,3.1219049947552e-05,4.14462778644986e-05
-0.00148136624582805,0.00516016514063866,3.35631840488943e-05,4.60859444755961e-05
-0.00147981652497152,0.00516141683825355,3.48939399746184e-05,4.89427220696679e-05
-0.00147994765519784,0.00516352684280436,3.63632990077965e-05,5.06684513794841e-05
-0.00147609719491584,0.00516620905197913,3.8357702118445e-05,5.12997210944429e-05
-0.00147414216245068,0.00516285927074309,3.89014034007141e-05,4.891569581415e-05
-0.00147793301808435,0.00515422851766518,3.59405530027279e-05,4.20382020803852e-05
-0.00148360738060518,0.00514467985300302,3.06441021323531e-05,3.11838359402984e-05
-0.00148601540839764,0.00513222248150244,2.63435880900433e-05,1.80217985880942e-05
-0.0014886976175724,0.005118298835653,2.349211376866e-05,5.08207870801523e-06
-0.00149463424054588,0.00510698587340032,1.73790159150159e-05,-4.7124898226903e-06
-0.00150990495144754,0.00510107309228617,2.78683253962382e-06,-1.10056067282645e-05
-0.0015305877644174,0.00509613782740461,-1.92412428522078e-05,-1.7291429391756e-05
-0.00155122289366859,0.00508527786047923,-4.09730114333787e-05,-2.59132634273282e-05
-0.00156631479062526,0.00507690936785396,-5.50128929321804e-05,-3.30211122191461e-05
-0.00157213220430208,0.00507748157247791,-6.05578610229043e-05,-3.26528986169938e-05
-0.00157128581829583,0.00508608848369649,-6.17372065044448e-05,-2.51988883107947e-05
-0.00157133350201449,0.00509098798578906,-6.12866308027724e-05,-1.71776699026762e-05
-0.00156857976726173,0.00509442121353276,-5.8343342362979e-05,-1.23342143884654e-05
-0.00156254777685093,0.0051004412830139,-5.21880506940803e-05,-7.70203899564371e-06
-0.0015544773074673,0.00510696203154099,-4.4903797812503e-05,1.50695786688696e-07
-0.00154738435431626,0.00511375696145039,-3.85518116806696e-05,9.32159780841107e-06
-0.00154222259177104,0.00511889488213628,-3.1890250051862e-05,1.5479808790297e-05
-0.00153222093178159,0.00512144596108472,-2.23648988895344e-05,1.75924503651973e-05
-0.00151926288123506,0.0051201346588215,-1.01057870381539e-05,1.832393503729e-05
-0.00150666245857849,0.00512048036578181,2.65796127068207e-06,2.06089777618088e-05
-0.00149450311031956,0.0051247122958131,1.53082328657311e-05,2.55089564213524e-05
-0.00148178347836634,0.00512981445370999,2.8813630869777e-05,3.17786475119411e-05
-0.00146731146975228,0.00513247282102542,4.1933993109212e-05,3.63075775228214e-05
-0.00145872840039303,0.00513194830012013,5.07938813503865e-05,3.67098500676293e-05
-0.00145753630742647,0.00512768060729984,5.35959278132176e-05,3.44760134328635e-05
-0.00145757207021547,0.00512523681671839,5.32316856362131e-05,3.37155357913447e-05
-0.00145652302840489,0.00512675077478592,5.35110425560559e-05,3.59416279494885e-05
-0.00145597466564027,0.00512790710496349,5.48876075282015e-05,3.82937673448393e-05
-0.00145629653074125,0.00512367517493219,5.58968388339613e-05,3.80051067079002e-05
-0.00145499714940769,0.00512228042616131,5.69066938177653e-05,3.62606452408293e-05
-0.00145158776352333,0.00512136251457706,5.95443771794224e-05,3.60111614508164e-05
-0.00144983538686248,0.00511926443095591,6.30421564642446e-05,3.79417057175018e-05
-0.00144957312640984,0.00512108833319475,6.39381816816047e-05,4.02966045702218e-05
-0.00145326861460618,0.00512064725879712,5.99166626375171e-05,4.09566801704936e-05
-0.00146107682353716,0.00511615306831318,5.20912014337333e-05,3.8038129650992e-05
-0.00147207984161853,0.00510625869669072,4.27783589374658e-05,3.02385153407554e-05
-0.00148268946902093,0.00509296686011355,3.23695699348476e-05,1.86876686512848e-05
-0.00149557599398947,0.00508118898160392,1.93857094291113e-05,7.21395737447616e-06
-0.00151253947690365,0.00507087737744316,2.98721806628581e-06,-1.25178435608411e-06
-0.00153223285271125,0.00506225854529491,-1.5492494409238e-05,-7.79627749923475e-06
-0.00155047187509965,0.00505412847126296,-3.3600787153592e-05,-1.5645455565393e-05
-0.0015669585208272,0.00504173070441071,-4.99014063672298e-05,-2.6285319513736e-05
-0.00158228883637719,0.00502774745391294,-6.4528992005103e-05,-3.89627407792682e-05
-0.00159599790549266,0.00501436024989845,-7.7434618942392e-05,-5.26373139677274e-05
-0.00160589227711512,0.00499764710650725,-8.68691385118759e-05,-6.61314059646063e-05
-0.00160940895136648,0.00498722821397949,-9.07778980122367e-05,-7.69749626801842e-05
-0.00160963544903013,0.00498156577238832,-8.94266687498066e-05,-8.24645708807082e-05
-0.0016053796771395,0.00497995644688347,-8.49766839475661e-05,-8.22361941697378e-05
-0.00159811983097314,0.0049829605211592,-7.8086967953989e-05,-7.84526479954236e-05
-0.00158809432912435,0.00498838454415706,-6.68203047977092e-05,-7.32697472935298e-05
-0.00157176265548245,0.00499424964155255,-5.00604756852943e-05,-6.69793667116414e-05
-0.00155159244248822,0.00500235587372517,-3.03891611407244e-05,-5.85031181250311e-05
-0.00153412828052809,0.00501248866394095,-1.19337251398032e-05,-4.70314693208747e-05
-0.00151907214636041,0.00502696067255501,3.46046300827649e-06,-3.35297542349121e-05
-0.00150604257023588,0.0050403836393585,1.62321100207347e-05,-2.0971060151888e-05
-0.00149637469627706,0.00504769116924352,2.65076776547694e-05,-1.20431872726435e-05
-0.0014890790873217,0.00505365163407633,3.37689533087552e-05,-6.07700547451684e-06
-0.00148445376661144,0.00506225854529491,3.85166672882759e-05,1.53685286615955e-07
-0.0014814854551247,0.00506900579148565,4.19858208654413e-05,7.5945033763696e-06
-0.0014784694599193,0.00507413179124187,4.43772992410133e-05,1.3111602805869e-05
-0.00147745618089772,0.00507727891667359,4.54222997861905e-05,1.46832612692549e-05
-0.00147756346926471,0.00507972270725505,4.63431995813926e-05,1.61806307570133e-05
-0.00147399911129469,0.00508711368364773,4.85856711641254e-05,2.31519278232898e-05
-0.00147223481370418,0.00509883195750904,5.03282234699833e-05,3.43814550143136e-05
-0.00147594222283019,0.00510735542221996,4.72093349298166e-05,4.16544811848608e-05
-0.00148471602706409,0.00510618717111273,3.79420610917824e-05,3.90084271778344e-05
-0.00149468192426455,0.00509707958084819,2.70138526327923e-05,2.92525191195213e-05
-0.00150215634716489,0.00508893758588657,2.00139186248528e-05,1.98300269841482e-05
-0.00150396832847406,0.00508438379075431,1.75668049350144e-05,1.45454814141844e-05
-0.0015061737004622,0.00508339435359206,1.51893866911311e-05,1.11339699244906e-05
-0.00151257523969264,0.00507804185617219,7.90067168928495e-06,5.39378335919512e-06
-0.00152628430880811,0.00507059127513118,-6.00847886888351e-06,-3.99320093128983e-06
-0.00154367694519025,0.00506137639649966,-2.39159192368344e-05,-1.38790774731971e-05
-0.00155948409792686,0.00505847961059091,-3.98356054941884e-05,-1.88964874146764e-05
-0.00156617173946927,0.00506268769876288,-4.81092684717345e-05,-1.6336377512952e-05
-0.00156679162781189,0.00507082969372449,-4.85605560055192e-05,-9.52803523232298e-06
-0.00156468162326107,0.00507519275398211,-4.72556354259718e-05,-5.08691323112102e-06
-0.00156720886035018,0.00507819682825785,-5.00624224307452e-05,-6.051501361741e-06
-0.0015716076833968,0.00507617027021469,-5.6007484223167e-05,-9.09343108139885e-06
-0.00157402763211892,0.00507588416790272,-5.89762252654676e-05,-9.08165714637096e-06
-0.00157090434854653,0.00508277446524945,-5.52858039856774e-05,-4.5427954289247e-06
-0.00156073579554175,0.00509251386478626,-4.70574560229033e-05,2.23936791725785e-06
-0.00155054340067765,0.00509879619472004,-3.82923094012659e-05,8.18345193863121e-06
-0.0015438676800649,0.00510109693414551,-3.05302881762826e-05,1.08167782902718e-05
-0.00153510579676067,0.00510306388754033,-2.32325367996728e-05,8.99793426437634e-06
-0.00152598628556647,0.00510013133884259,-1.58394075836164e-05,4.71573967781148e-06
-0.00151802310454983,0.00509758025989415,-7.64627848543013e-06,2.73037453656971e-06
-0.00150676974694549,0.00510293275731401,2.73329971269626e-06,6.03295577372061e-06
-0.00149317988712668,0.00511128932900961,1.56910268070422e-05,1.27125176168251e-05
-0.00147842177620064,0.00511865646354297,2.8875049467709e-05,1.92587768735849e-05
-0.0014685870092265,0.00512578517948301,3.86236819111842e-05,2.52394298513238e-05
-0.00146336564203296,0.00513250858381442,4.32758594168424e-05,3.20509980587031e-05
-0.00146125563748214,0.00514143736013397,4.45055512451247e-05,3.89064043453129e-05
-0.00145865687481504,0.00514798195052039,4.56463450028662e-05,4.38849190580683e-05
-0.00145562895867997,0.00515090257828847,4.90567916827631e-05,4.78517430414061e-05
-0.00144914397294187,0.00515650541523131,5.4484725750163e-05,5.27120349678073e-05
-0.00144363650343636,0.00516243011727513,5.9272883272298e-05,5.56592715835174e-05
-0.00144155034074487,0.0051555398199284,6.04234591429802e-05,5.012434446095e-05
-0.00144498356848857,0.00513986379741811,5.69766453819553e-05,3.42870746429973e-05
-0.00145090827053239,0.00512192279827135,5.03279844729907e-05,1.46451323976232e-05
-0.00145809659112076,0.00510602027809741,4.23481152139084e-05,-1.42238003467598e-06
-0.00146608361399672,0.00509368211589349,3.38445816702791e-05,-1.34564905708487e-05
-0.0014747262880043,0.00508222610248483,2.47931139048753e-05,-2.53727028998026e-05
-0.00148478755264208,0.00507042438211586,1.49055198488954e-05,-3.76831810467342e-05
-0.0014944554266009,0.00506211549413892,3.49528893393426e-06,-4.59290226658263e-05
-0.00150841483523934,0.00506197244298294,-1.00716104327075e-05,-4.61116179005833e-05
-0.00152316102523571,0.00506899387055599,-2.4858570842937e-05,-3.90250883324226e-05
-0.00153539189907264,0.00507894784682678,-3.79973532365062e-05,-2.93292102786309e-05
-0.00154356965682326,0.00508611232555582,-4.67646523174445e-05,-2.17806156650672e-05
-0.00154794463801054,0.00509018928350146,-5.06996093468351e-05,-1.78148324679055e-05
-0.00154815921474452,0.00509290725546522,-5.12339726240177e-05,-1.48876959557403e-05
-0.00154610881484203,0.00509740144594916,-4.99226647761783e-05,-1.01585319478986e-05
-0.00154333123822994,0.0051019313992221,-4.75981946192904e-05,-5.1370257307487e-06
-0.00154142388948345,0.00510329038520398,-4.4417898209149e-05,-4.29211982340074e-06
-0.00153552302929896,0.00509862930170472,-3.98666029336088e-05,-8.00956678156699e-06
-0.00152840623428859,0.00509600669717829,-3.32824340095779e-05,-1.02650926121953e-05
-0.00152132520206721,0.00510042936208423,-2.50788152651705e-05,-5.97803481057195e-06
-0.00151271829084863,0.00510820180822622,-1.6792774421456e-05,2.18931360062145e-06
-0.00150431403543437,0.00511335164984176,-9.33401773348245e-06,7.91143715485026e-06
-0.00149768599854028,0.00511465103117532,-2.16413865179496e-06,9.64604387305161e-06
-0.0014906049663189,0.00511546165439258,5.00377656045807e-06,1.0622962590992e-05
-0.00148513325960238,0.0051171544264051,1.09879100903361e-05,1.21807412061798e-05
-0.00147956618544854,0.00511611730552419,1.49694365683348e-05,1.24890220474893e-05
-0.00147720584137475,0.00511518747301027,1.8342280020213e-05,1.15960365696597e-05
-0.00147362956247506,0.00511623651482084,2.28513027642997e-05,1.2244143190463e-05
-0.00146745452090827,0.0051174643705764,2.76515895375408e-05,1.45824606267229e-05
-0.0014647723117335,0.00511728555663142,3.03512550578602e-05,1.50434559270779e-05
-0.0014655352512321,0.00511550933811124,3.06938162797161e-05,1.23866797376647e-05
-0.00146509417683447,0.00511209995222687,3.10491734519571e-05,1.03720255780522e-05
-0.00146229275836305,0.00511343509634942,3.30855264877018e-05,1.1795664929335e-05
-0.00145968207476628,0.00511552125904091,3.58614358827714e-05,1.37258085188973e-05
-0.00145940789338397,0.00511322051961544,3.74743484134985e-05,1.18144241026392e-05
-0.00145884760968969,0.00510642558970604,3.67911259050828e-05,6.24631516340723e-06
-0.00146282920019801,0.00510139495738715,3.33519561091891e-05,1.66392940259002e-07
-0.00146849164178918,0.00509580404137397,2.76030232105895e-05,-5.0721470106519e-06
-0.00147471436707463,0.00508996278583782,2.15966691805643e-05,-9.59454653076098e-06
-0.00147966155288586,0.00508736402317071,1.71439151633712e-05,-1.23692134370135e-05
-0.00148358353874585,0.00508762628362335,1.25063318718452e-05,-1.29179062353981e-05
-0.00149228581740176,0.00508595735347017,3.46597605338132e-06,-1.4056062727939e-05
-0.001508498281747,0.00507910281891244,-1.08640859176393e-05,-1.87781149021651e-05
-0.00152200469505815,0.00507428676332752,-2.569038517077e-05,-2.52274172464821e-05
-0.00153175601552463,0.00507204562855039,-3.60251137836787e-05,-2.87732811210639e-05
-0.0015393258058623,0.00506840974500237,-4.24400026426413e-05,-2.88825386149882e-05
-0.00154613265670137,0.00506756335899611,-4.88606919547278e-05,-3.01026938971891e-05
-0.00155242690756481,0.00506467849401703,-5.64896725046665e-05,-3.58001601799425e-05
-0.00155900726074024,0.00505380660616199,-6.31794245968107e-05,-4.42464898931944e-05
-0.00156511077672903,0.00504524737866207,-6.76168162950276e-05,-5.15207335701173e-05
-0.00156650552549991,0.00504283935086962,-7.00462070881219e-05,-5.52089119389935e-05
-0.00156404981398879,0.00504459172753046,-6.87106174152584e-05,-5.44405506556296e-05
-0.00155652770736979,0.00504754811808754,-5.989469864958e-05,-4.92992753388103e-05
-0.0015403629267432,0.00505453378287159,-4.34941507731121e-05,-4.16110682418502e-05
-0.00152071723465426,0.00506370097778445,-2.54064944885472e-05,-3.40706703940241e-05
-0.00150737771435843,0.00507007867515556,-1.15824529390183e-05,-2.73028121801174e-05
-0.00149757871017329,0.00507637292601901,-1.47788415628744e-06,-1.94384854630424e-05
-0.00148607501304597,0.0050863269022898,9.91535074001521e-06,-9.15736059282944e-06
-0.00146996983706771,0.00509949952957031,2.47381982013302e-05,2.84227948693035e-06
-0.0014556885633283,0.00511163503596991,3.98497378395895e-05,1.57327381078868e-05
-0.00144397028946699,0.00512397319817383,5.13320675604386e-05,2.93773170921074e-05
-0.00143641242005899,0.00513714582545434,5.84849436890956e-05,4.26681801041038e-05
-0.00143160828540375,0.0051490548341903,6.27116199779235e-05,5.39264007484045e-05
-0.00142968901572758,0.00515825779189216,6.48666140718505e-05,6.39827028096709e-05
-0.00142925986225962,0.00516907007509888,6.51085523563133e-05,7.56816581274624e-05
-0.00143014201105487,0.00518144400009179,6.37927823944842e-05,8.853452545076e-05
-0.00143269309000332,0.00518987209736538,6.082536904296e-05,9.69374408543406e-05
-0.00143830784787582,0.00519014627874769,5.48526652333901e-05,9.62865001137667e-05
-0.00144900092178589,0.00517878563277636,4.46184169556987e-05,8.84530515626476e-05
-0.00146168479095011,0.00517004759133146,3.11428427682464e-05,7.85291593458826e-05
-0.00147423752988801,0.00516070158247361,1.77052472823455e-05,6.84809982569161e-05
-0.00148475178985308,0.00514773161099741,7.53877615034198e-06,5.7216035725636e-05
-0.00149091491049021,0.00513410598838961,1.65065797172177e-06,4.49121492305937e-05
-0.00149285802202571,0.00512323410053456,-1.78858035252822e-06,3.33086941537116e-05
-0.00149736413343931,0.00511275560335848,-6.50340390996966e-06,2.25102215562267e-05
-0.00150673398415649,0.00509946376678132,-1.57313214861731e-05,1.102887429725e-05
-0.00152077683930259,0.00508574277673619,-2.94618507864583e-05,-1.45635941993198e-06
-0.00153341302474815,0.00507487088888114,-4.3995902595513e-05,-1.44807649513197e-05
-0.00154412994051754,0.00505868226639523,-5.49749989952768e-05,-2.88923989903861e-05
-0.00155143747040257,0.0050415638113954,-6.08031244351742e-05,-4.44531352070416e-05
-0.00155161628434755,0.00503191977929591,-6.27777378488254e-05,-5.58158996098519e-05
-0.0015506983727633,0.00503041774215804,-6.27648286828428e-05,-5.61179595376208e-05
-0.00155032882394366,0.00503932267661826,-6.18662112029544e-05,-4.61258963305435e-05
-0.00154901752168045,0.00505092174118291,-6.04659931126438e-05,-3.53155706442371e-05
-0.00154484519629748,0.00505487948983189,-5.76073019106506e-05,-3.13235558328756e-05
-0.00153702506643683,0.0050524833829691,-5.0530294241935e-05,-3.19669299706429e-05
-0.00152457961586592,0.00505461722937925,-3.71342077054662e-05,-3.05913833210953e-05
-0.00150569686327558,0.00506024390818142,-1.95362605253353e-05,-2.57558993366742e-05
-0.00148924598033702,0.00506317645687917,-3.13377332956978e-06,-2.14116698665083e-05
-0.00147635945536849,0.00506426126147874,8.92206762497855e-06,-1.98081387339396e-05
-0.00146667966048,0.00506590634977259,1.84766686969404e-05,-1.91758555476137e-05
-0.00145696410280252,0.00506827861477605,2.83928329826261e-05,-1.79972929601821e-05
-0.00144623526610346,0.00506637126602955,3.79308416349928e-05,-1.71980047688241e-05
-0.00143954762456105,0.00506662160555253,4.42322164699303e-05,-1.7443075653562e-05
-0.00143729456885425,0.00506918460543064,4.68033235260939e-05,-1.77349194891779e-05
-0.00143553027126373,0.00506751567527745,4.77297515966974e-05,-1.76352825241098e-05
-0.00143502959221778,0.00506639510788888,4.81545880378838e-05,-1.78461039608761e-05
-0.00143482693641346,0.00506795674967508,4.74765973894623e-05,-1.74978298025659e-05
-0.00143638857819966,0.00507365495405525,4.60807157620203e-05,-1.39590716892703e-05
-0.001436340894481,0.00507862598172581,4.58885288039934e-05,-7.26761479494882e-06
-0.00143452891317182,0.00508244067921881,4.71235854594239e-05,-2.33249260213274e-06
-0.0014343977829455,0.00508357316753704,4.67953435147324e-05,-4.41297771084225e-06
-0.00143916615481175,0.00507440597262418,4.19504566253742e-05,-1.38865844066196e-05
-0.0014480591683423,0.00505943328496416,3.31160791033075e-05,-2.7147303184917e-05
-0.00145735749348149,0.00504651099720663,2.32986510998157e-05,-4.06033692346825e-05
-0.00146510609776414,0.00503827363480768,1.45745964186511e-05,-5.14020607007325e-05
-0.001474273292677,0.00503267079786484,6.60883420482603e-06,-5.63249361167299e-05
-0.00148221263183431,0.00503495961636064,-2.44211063725056e-06,-5.37573826630533e-05
-0.00149394282662528,0.00504246980204998,-1.43893802965481e-05,-4.61739533533649e-05
-0.00150939235147192,0.00505398542010697,-2.93053438707438e-05,-3.71255767931362e-05
-0.0015233756019697,0.00506521493585199,-4.44761262736815e-05,-2.5910448914441e-05
-0.00153590449904826,0.00507979423283304,-5.6148212640375e-05,-9.24156099739464e-06
-0.00154300937312897,0.00510190755736277,-6.32650935193041e-05,1.10074356324627e-05
-0.00154670486132532,0.00511935979839324,-6.82958400557761e-05,2.62896376569403e-05
-0.0015529156656811,0.0051213148308584,-7.323295501995e-05,3.05538589002671e-05
-0.00155543098184055,0.00511878759376929,-7.61076792620118e-05,2.77701365920933e-05
-0.00155265340522846,0.00511900217050327,-7.32128527057644e-05,2.66690175766383e-05
-0.00154291400569165,0.00512301952380058,-6.38838749653344e-05,3.00864746865861e-05
-0.00153026589931642,0.00512570173297535,-5.10922492644326e-05,3.36732167914309e-05
-0.00151814231384649,0.00512455732372745,-3.77404831406532e-05,3.40067654201432e-05
-0.00150414714241905,0.00512686998408258,-2.44752604288744e-05,3.30009409966925e-05
-0.00149027118028827,0.00512558252367869,-1.12369943757309e-05,3.33903947554383e-05
-0.0014796496319562,0.0051250580027734,1.2023390099465e-06,3.42759626274661e-05
-0.00146873006038249,0.00512573749576434,1.21658403594351e-05,3.37250088476939e-05
-0.00145819195855808,0.00512472421674277,2.20810102932998e-05,3.29537072938493e-05
-0.00144921549851987,0.00512614280737298,3.15436326869722e-05,3.49224532700122e-05
-0.00144166955004153,0.00513006479323296,4.03088654364614e-05,4.01923147374101e-05
-0.00143435009922684,0.0051368835650017,4.80079083970328e-05,4.67091593930906e-05
-0.00142662533680352,0.00514283210890484,5.4916567485805e-05,5.27311099928152e-05
-0.00142195233237459,0.00514621765292988,6.097768839861e-05,5.74844420709384e-05
-0.00141909130925484,0.0051471474854438,6.47372445508987e-05,5.94762800445785e-05
-0.00141942509528548,0.00514433414604271,6.45094906524375e-05,5.69154023420534e-05
-0.00142346629044213,0.00513746769055531,6.05215848924454e-05,5.03133668825957e-05
-0.00143053540173384,0.00512808591890847,5.48994743943205e-05,4.24881678516501e-05
-0.00143651970842598,0.00511856109610564,4.92990651363434e-05,3.49684059877777e-05
-0.00144323119182773,0.00511049062672202,4.33246529851787e-05,2.60108900687843e-05
-0.00145117053098503,0.0050965550599429,3.58268476543597e-05,1.35319799165284e-05
-0.00146052846077254,0.00507975847004404,2.73141275478018e-05,-1.06585299406998e-06
-0.00146867045573416,0.00506601363813958,2.01021992781372e-05,-1.36648673132735e-05
-0.00147420176709901,0.00505842000594258,1.55004179956461e-05,-2.18359567340633e-05
-0.00147886285059827,0.00505088597839391,1.12944142243744e-05,-2.70083041682148e-05
-0.00148733863159052,0.00504384070896153,3.18681065786884e-06,-3.17961600634022e-05
-0.00150324115176446,0.0050392034673216,-1.06136773205703e-05,-3.63491450677333e-05
-0.001519942374226,0.00503633052327219,-2.68818505203116e-05,-3.85592993437452e-05
-0.00153309115964718,0.0050350430628683,-4.03264983267351e-05,-3.75364357060899e-05
-0.00154353389403426,0.00503498345821997,-4.86709278916144e-05,-3.54149511515074e-05
-0.00154976854024938,0.00503610402560854,-5.37602924848098e-05,-3.5018663384049e-05
-0.00155404815399934,0.00503248006299019,-5.79398568189977e-05,-3.66347337885964e-05
-0.0015575648282507,0.00502929717476947,-6.1021341378632e-05,-3.81295326959966e-05
-0.00156025895835513,0.00502822429109957,-6.1419029762105e-05,-3.77015594997599e-05
-0.00155805358636699,0.00503032237472071,-5.87024445915741e-05,-3.51485172922015e-05
-0.00155262956336913,0.00503467351404867,-5.35907878637222e-05,-3.05005389144884e-05
-0.0015472651450196,0.00503890544407996,-4.62511749345807e-05,-2.30909336382957e-05
-0.0015385628663637,0.00504843026688279,-3.62165266754953e-05,-1.2856822791561e-05
-0.00152566442046549,0.00506094724303169,-2.38453759591053e-05,-1.48390378654332e-06
-0.00151367196522188,0.00506877929382201,-1.05057207034332e-05,8.84190581068563e-06
-0.00150198945414957,0.00507504970282612,2.84847416154506e-06,1.73180027762766e-05
-0.00148843535711976,0.00508399040007534,1.61834657671337e-05,2.44160994753843e-05
-0.00147590646004119,0.00508815080452864,2.92442984184236e-05,3.05633747718413e-05
-0.00146609553492639,0.00509269267873124,4.09054345034184e-05,3.58402523028514e-05
-0.00145723828418483,0.00509668619016923,4.9952509298047e-05,4.02840963948725e-05
-0.00145157584259366,0.00509916574353968,5.55884832429119e-05,4.31999218613242e-05
-0.00145139702864868,0.00509861738077506,5.69691646389899e-05,4.25654922412617e-05
-0.00145601042842927,0.00509194166016231,5.35849321443209e-05,3.66168088486051e-05
-0.00146219739092573,0.00508093864208094,4.69464360791878e-05,2.60367403201295e-05
-0.00146863469294516,0.00506835014035405,4.07263289288221e-05,1.31463701856615e-05
-0.00147330769737409,0.00505437881078594,3.77405457596718e-05,-1.07971505040149e-06
-0.00147383221827937,0.00503797561156604,3.70644979534296e-05,-1.71267149291704e-05
-0.00147565612051821,0.00502209693325144,3.5285575266307e-05,-3.31821101063974e-05
-0.00148029336215814,0.00501214295698064,3.05068861795813e-05,-4.36367565386192e-05
-0.00148863801292408,0.00501185685466867,2.4033135903419e-05,-4.42097341321472e-05
-0.00149379977546929,0.00501889020317138,1.79946215068441e-05,-3.81867666912737e-05
-0.00149897345894417,0.0050217273844318,1.23701666671539e-05,-3.47588556160025e-05
-0.00150744923993643,0.00501776963578282,4.90907106541856e-06,-4.0000231318457e-05
-0.00151921519751639,0.00500773221300436,-6.54263602172779e-06,-5.1071684909223e-05
-0.00153383025728644,0.00499920874829344,-2.20401988721681e-05,-6.04312493581078e-05
-0.00155125865645758,0.00499497681826215,-3.94319601588055e-05,-6.41447521482309e-05
-0.00156790027427079,0.00499732524140628,-5.58108756203918e-05,-6.41326955826096e-05
-0.00158125171549628,0.00499919682736378,-6.91911964029466e-05,-6.32574049503821e-05
-0.00159035930576082,0.00500175982724189,-7.89809937479958e-05,-6.1050508166571e-05
-0.00159598598456299,0.00500870972923694,-8.50029959096565e-05,-5.51733595444745e-05
-0.00159769067750518,0.0050198915612633,-8.66165380700325e-05,-4.52750486699306e-05
-0.00159413824046482,0.00503323108155913,-8.33418606230999e-05,-3.38440227351508e-05
-0.0015859604827142,0.00504401952290651,-7.59196791410174e-05,-2.36501745715787e-05
-0.00157516012043715,0.00505272180156242,-6.57849196586089e-05,-1.50948850819472e-05
-0.00156266698614758,0.00506483346610269,-5.35457611308341e-05,-5.877591840417e-06
-0.00154833802868951,0.0050786975073038,-3.90879870304878e-05,6.66705912008152e-06
-0.00153083810394037,0.00509390861355714,-2.34490242285606e-05,2.1904430470685e-05
-0.00151672372321628,0.00510756999895394,-9.28739416939329e-06,3.44745427993808e-05
-0.00150518426329996,0.00511446029630067,1.52413537944328e-06,3.8302920724002e-05
-0.00149620780326174,0.00511012107790238,1.00454155686903e-05,3.32278275422736e-05
-0.0014864445618656,0.00510236055269006,1.89000895594732e-05,2.63027157699786e-05
-0.00147482165544162,0.00510411292935091,2.9108817309635e-05,2.49849106221995e-05
-0.00146467694429618,0.00511128932900961,3.93450894412416e-05,3.00726326322754e-05
-0.001455342856368,0.00511714250547543,4.81172432981357e-05,3.698912356904e-05
-0.00144655713120443,0.00512423545862648,5.53178339474745e-05,4.26328814443206e-05
-0.00143923768038974,0.00513229400708044,6.11714836249059e-05,4.80418770671467e-05
-0.00143666275958197,0.00513895780676352,6.48751806136832e-05,5.45916804875815e-05
-0.00143411168063353,0.00514535934599396,6.54784033784208e-05,6.09926392193441e-05
-0.00143445738759383,0.00515191585731005,6.37160404795458e-05,6.54549063880374e-05
-0.00143581637357571,0.00515571863387338,6.16496507635933e-05,6.8368431695956e-05
-0.00143798598277485,0.00515847236862614,6.00170151839855e-05,7.08101650750316e-05
-0.00143915423388208,0.00515998632669367,5.68586910989268e-05,7.18717674076249e-05
-0.00144417294527131,0.00515871078721945,4.98595537795883e-05,6.95612043542048e-05
-0.00145531901450867,0.00515437156882117,3.98189558107911e-05,6.36434166668023e-05
-0.00146358021876694,0.00514500171810399,3.03772770514331e-05,5.56737194800756e-05
-0.00146825322319586,0.00513694316965003,2.35377826540114e-05,4.63521123350441e-05
-0.00147515544147226,0.00512679845850458,1.66084307956114e-05,3.45477317636996e-05
-0.0014860630921163,0.00511041910114402,5.22582111611525e-06,1.95878507018128e-05
-0.00150104770070599,0.00509517223210169,-1.09113624975104e-05,3.71453341768092e-06
-0.00151621112324066,0.00508389503263801,-2.72659273895097e-05,-8.56896260446198e-06
-0.00152828702499193,0.00507799417245353,-3.98400117035768e-05,-1.40903311347262e-05
-0.00153721580131148,0.00507763654456356,-4.92176555309936e-05,-1.43227176642422e-05
-0.0015445948567745,0.00507715970737694,-5.78256436925634e-05,-1.48350213433384e-05
-0.00155140170761357,0.00507174760530875,-6.51080559144797e-05,-2.05731720517677e-05
-0.0015533686610084,0.00506051808956373,-6.81687099630322e-05,-3.15690879263897e-05
-0.00155147323319156,0.0050476315645952,-6.65766707702975e-05,-4.39334616397437e-05
-0.00154796847986987,0.00503680736045881,-6.34411527261117e-05,-5.44445952103365e-05
-0.00154366502426058,0.00502948790964412,-6.0900706702174e-05,-6.23187817367942e-05
-0.00153996953606424,0.00502407580757593,-5.69843317016137e-05,-6.66717515338081e-05
-0.00153099307602603,0.00502476722149653,-4.84697091912501e-05,-6.54031781414325e-05
-0.00151655683020096,0.00503175288628059,-3.52285233884823e-05,-5.84817756886746e-05
-0.00150109538442465,0.00503975183008622,-2.01353153537155e-05,-5.00628892840253e-05
-0.00148614653862396,0.0050441983368515,-5.8296991173933e-06,-4.46303635164476e-05
-0.00147379645549038,0.00504616529024632,6.85747634813075e-06,-4.21953252520895e-05
-0.00146046885612421,0.00504838258316413,1.8195951382669e-05,-3.97946285019576e-05
-0.0014499307542998,0.00505056411329294,2.89624618195627e-05,-3.65241345429908e-05
-0.00143917807574141,0.0050529363782964,4.00013352028954e-05,-3.37397228367552e-05
-0.00142670878331118,0.00505540401073718,5.0884402030388e-05,-3.06011453665683e-05
-0.00141763695583564,0.00506151944765564,5.94544026171993e-05,-2.34079844177356e-05
-0.00141371496997565,0.00507389337264856,6.40092210441194e-05,-1.09450809961413e-05
-0.0014115811235655,0.00508618385113381,6.5293954216262e-05,2.36365616306082e-06
-0.00141092547243389,0.00509346753915951,6.48925491973763e-05,1.09125152960006e-05
-0.0014130712397737,0.00509666234830989,6.25591929796461e-05,1.39628387839103e-05
-0.00141947277900414,0.00509672195295822,5.72033605444799e-05,1.52856487743469e-05
-0.00142459877876036,0.00509845048775974,4.98979093000193e-05,1.79469719195041e-05
-0.00143109568542812,0.00510176450620678,4.33942379919761e-05,2.15935800055896e-05
-0.001436305131692,0.00510365993402361,3.86287077073015e-05,2.45393786925057e-05
-0.00144040593149697,0.00510482818513085,3.40057021622657e-05,2.65337738108122e-05
-0.00144526967080055,0.00510659248272136,2.80421669075599e-05,2.87651684785207e-05
-0.00145347127041049,0.00510882169656883,1.99257157233232e-05,3.19015052479887e-05
-0.0014659167209814,0.005110633677878,7.35881307401497e-06,3.47213299451929e-05
-0.00148557433400001,0.00511046678486268,-1.22712391414459e-05,3.48723807431138e-05
-0.00150845059802834,0.00510618717111273,-3.67358415298113e-05,3.12781150616456e-05
-0.00153034934582408,0.00509946376678132,-5.81569377742159e-05,2.56352970131493e-05
-0.00154223451270071,0.00509394437634613,-7.00663482453627e-05,2.07390727736962e-05
-0.0015449763265238,0.00509033233465745,-7.33678773902051e-05,1.72200428151938e-05
-0.00154376039169791,0.00508490831165959,-7.32832616733598e-05,1.29037174553792e-05
-0.00154387960099456,0.00507694513064296,-7.28544822150252e-05,5.70967148109716e-06
-0.00154284248011365,0.00506749183341812,-7.2114197061867e-05,-3.81228140235321e-06
-0.00154109010345281,0.00505702525717171,-7.10438920629091e-05,-1.31574484704899e-05
-0.00153868207566035,0.00505008727610631,-6.93205401234238e-05,-1.98837888670833e-05
-0.00153383025728644,0.00504728585763489,-6.44333752458804e-05,-2.25525729934547e-05
-0.00152373322985966,0.00504711896461957,-5.4061522122144e-05,-2.12011041753589e-05
-0.00150789031433405,0.00505113631791689,-3.98443583860662e-05,-1.77562891874826e-05
-0.00149357327780564,0.00505454570380126,-2.52970318442939e-05,-1.44967320710493e-05
-0.0014788151668796,0.00505620271302478,-1.06972649864108e-05,-1.10672960372539e-05
-0.00146169671187977,0.0050623658336619,5.89364816643345e-06,-4.71602672129249e-06
-0.00144406565690432,0.00507417947496053,2.28812475116206e-05,5.12113273519529e-06
-0.00143142947145876,0.00508157045135322,3.52666980405406e-05,1.45918753445001e-05
-0.00142505177408765,0.00508611232555582,4.14737369777184e-05,2.02149872864589e-05
-0.00142047413709606,0.00509233505084127,4.54540500710778e-05,2.40510031930509e-05
-0.00141520508618385,0.00509825975288509,5.02450888864366e-05,3.05625584198989e-05
-0.00141131886311286,0.00510534078510647,5.38767402514815e-05,3.92582002165034e-05
-0.00141044863524727,0.00511186153363356,5.43797590635832e-05,4.48293824573599e-05
-0.00140945919808502,0.00511345893820875,5.47595819124296e-05,4.51403358568268e-05
-0.00140506037503841,0.00511200458478955,5.89408304667489e-05,4.44717898010366e-05
-0.00139839657535533,0.00511335164984176,6.52458902658167e-05,4.64009546550373e-05
-0.00139510639876761,0.00511516363115094,6.79112700767669e-05,4.71817464872893e-05
-0.00139881380789362,0.00510953695234877,6.37955402406376e-05,4.00477075107617e-05
-0.00140836247255578,0.00509250194385659,5.43286453721604e-05,2.40963492760601e-05
-0.00141989001154244,0.00507282048897865,4.19921982159786e-05,4.85797733870975e-06
-0.00143309840161195,0.0050577881966703,2.81140477060055e-05,-1.31769029513272e-05
-0.00144807108927197,0.00503985911845321,1.34303964946112e-05,-3.04203791585191e-05
-0.00146317490715831,0.00502191811930645,-2.15570579281153e-06,-4.80074142823772e-05
-0.00148006686449449,0.00500813752461299,-1.99890651891785e-05,-6.36677262325793e-05
-0.00150049933794137,0.00499793320881922,-4.03079343266468e-05,-7.40431191285737e-05
-0.00151982316492934,0.00499434500898987,-5.99713992438356e-05,-7.87869558693878e-05
-0.00153446206655872,0.00499341517647595,-7.48724217942514e-05,-7.97866250571362e-05
-0.00154261598245001,0.00499621659494737,-8.38857556838916e-05,-7.76529822854999e-05
-0.00154706248921528,0.00500384598993337,-8.80539643625241e-05,-7.1873920252178e-05
-0.00154569158230374,0.00501174956630168,-8.71232809664332e-05,-6.42998344929353e-05
-0.00153819331754406,0.00501666098932391,-8.02878589588503e-05,-5.94807599330718e-05
-0.00152807244825795,0.00501803189623546,-6.96738101890308e-05,-5.98368014512013e-05
-0.00151634225346698,0.00501725703580719,-5.89994585550299e-05,-6.18656221308405e-05
-0.0015054465237526,0.00502017766357527,-4.82481497098415e-05,-5.90379883714153e-05
-0.00149126061745051,0.00503183633278825,-3.34667035247672e-05,-4.82519395176837e-05
-0.00147013673008303,0.00504987269937233,-1.3206540697591e-05,-3.20891119327151e-05
-0.00144802340555331,0.00506762296364444,8.02925196742592e-06,-1.49001450023269e-05
-0.00143270501093298,0.00508391887449735,2.45143283315793e-05,1.41785951519524e-06
-0.00142179736028894,0.0051019313992221,3.49408972321474e-05,1.68819307076357e-05
-0.00141400107228762,0.00511575967763422,4.16760160756232e-05,3.04780925028771e-05
-0.00140939959343669,0.00512548715624137,4.68392703483474e-05,4.01292177196127e-05
-0.00140502461224941,0.00513334304889101,5.12690264704002e-05,4.56320501917722e-05
-0.0014005542636248,0.00513765842542997,5.55375262024635e-05,4.96621860761664e-05
-0.00139594086384421,0.00514339239259913,5.9547110368737e-05,5.47395742786511e-05
-0.00139396198951971,0.0051490548341903,6.18477944413439e-05,6.00433738034482e-05
-0.00139487990110397,0.00515366823397089,6.10084200274141e-05,6.22743834153518e-05
-0.00139877804510463,0.00515044958296118,5.72394920424762e-05,5.93919968458134e-05
-0.00140312918443258,0.00514382154606709,5.19629325459379e-05,5.27019647231635e-05
-0.00140904196554673,0.0051380279742496,4.67988006715354e-05,4.52214235431744e-05
-0.00141254671886842,0.00513241321637709,4.33573014800327e-05,3.8563170902536e-05
-0.00141351231417133,0.00512515337021073,4.21153317698005e-05,3.18782851258587e-05
-0.00141508587688719,0.00511747629150607,4.05254724402443e-05,2.39930392986933e-05
-0.00142132052310231,0.00511161119411058,3.4377165365392e-05,1.62508247438676e-05
-0.00143324145276794,0.00510773689196926,2.25775787380838e-05,1.22721220012382e-05
-0.001447749224171,0.00510852367332719,8.58724124029392e-06,1.4114584766999e-05
-0.00146014699102324,0.00511460334745665,-4.57881432212536e-06,1.92440455088031e-05
-0.00147390374385737,0.00511930019374491,-1.8346903352669e-05,2.25825975868386e-05
-0.0014917851383558,0.00511704713803811,-3.49418539310519e-05,2.1503039739782e-05
-0.00150858172825466,0.00511244565918718,-5.1971735188358e-05,1.74257832468967e-05
-0.00151940593239104,0.00510875017099083,-6.44708654986585e-05,1.23226715139985e-05
-0.00152841815521825,0.00510171682248812,-7.13826205944664e-05,5.62159483785534e-06
-0.00153338918288882,0.00509076148812541,-7.60549880814171e-05,-4.04447455003795e-06
-0.00153621444321957,0.00507967502353639,-8.03579178787198e-05,-1.5469555918508e-05
-0.00153846749892637,0.00507040054025653,-8.22700243916441e-05,-2.5460680985261e-05
-0.00153794297802108,0.00506123334534367,-8.00528102514193e-05,-3.24541594590257e-05
-0.00153170833180596,0.00505689412694538,-7.48439202536644e-05,-3.73323615375792e-05
-0.00152372130893,0.00505381852709165,-6.72553913781489e-05,-4.01233045843845e-05
-0.00151225337459167,0.0050547722014649,-5.49523429666045e-05,-3.8149305187204e-05
-0.00149431237544491,0.00506242543831023,-3.66455885065553e-05,-2.95063579253306e-05
-0.00147353419503773,0.00507463247028783,-1.6127767682158e-05,-1.74735888517065e-05
-0.00145583161448429,0.00508234531178148,1.16879604511444e-06,-8.82412839164686e-06
-0.00144281395928943,0.00508313209313942,1.45565922300248e-05,-6.777291537557e-06
-0.00143083342497548,0.00508183271180586,2.77514537061899e-05,-7.29660400876042e-06
-0.00141458519784124,0.00508493215351892,4.2476085840797e-05,-4.00067222908872e-06
-0.00140155562171672,0.0050924304182786,5.56730712591793e-05,4.27588061116664e-06
-0.00139465340344032,0.00509886772029803,6.38332739343854e-05,1.29907300002094e-05
-0.00139043339433869,0.00510442287352221,6.73540826052754e-05,1.85751001228215e-05
-0.00138828762699888,0.00510852367332719,6.90109258230079e-05,2.26117183539228e-05
-0.00138794192003858,0.00511161119411058,6.99547625889138e-05,2.80876065753929e-05
-0.00138877638511517,0.00511683256130413,6.91665235903411e-05,3.41841184597385e-05
-0.00139182814310957,0.00511959821698655,6.58705611027517e-05,3.75012773938563e-05
-0.00139709719402177,0.00511912137979992,6.04173373597868e-05,3.69563436137808e-05
-0.00140455969599245,0.00511407882655137,5.28775728825143e-05,3.43106159372828e-05
-0.00141491898387188,0.00510894090586548,4.26138468198623e-05,3.03419872830891e-05
-0.00142780550884041,0.00510300428289201,3.00024315197845e-05,2.37480487900361e-05
-0.00143910655016342,0.00509244233920826,1.74479382589537e-05,1.42720468747723e-05
-0.00144941815432418,0.00508013993979334,7.56167437210962e-06,4.08625882920564e-06
-0.00145678528885754,0.00507135421462978,5.68783193351388e-07,-4.66369456155361e-06
-0.00146243580951904,0.00506458312657971,-5.73389295183739e-06,-1.11543316245623e-05
-0.0014690400045538,0.00506066114071972,-1.34838115931175e-05,-1.429048421029e-05
-0.00147937545057389,0.00506079227094604,-2.27991158813745e-05,-1.31989676128482e-05
-0.00148875722222073,0.00506197244298294,-3.23035885391253e-05,-1.06029819641559e-05
-0.0014955640730598,0.0050619843639126,-4.08439593406216e-05,-1.18954740161155e-05
-0.00150356301686543,0.00505485564797256,-4.82077886119522e-05,-1.81171612583965e-05
-0.0015096069282059,0.00504838258316413,-5.45769010792643e-05,-2.31131272045643e-05
-0.00151478061168078,0.00504971772728668,-5.99511360486755e-05,-2.13621249841615e-05
-0.00151755818829287,0.00505697757345304,-6.4073853472474e-05,-1.6018050000261e-05
-0.00152004966259299,0.00505695373159371,-6.63383855638905e-05,-1.4517314178434e-05
-0.0015194893788987,0.00505204230857148,-6.5609475759437e-05,-1.78057441233753e-05
-0.00151283750014529,0.00505231648995379,-6.06816268189706e-05,-1.95123380365231e-05
-0.00150383719824774,0.00505623847581377,-5.13860009486192e-05,-1.60008223876295e-05
-0.00149109372443519,0.00505871802918422,-3.90905983589548e-05,-1.15689066906858e-05
-0.00147666939953979,0.00505993396401012,-2.57732869802402e-05,-1.14753891217774e-05
-0.00146386632107892,0.00505764514551432,-1.26601508652168e-05,-1.44574176383854e-05
-0.00144999035894813,0.00505628615953244,2.42496659091899e-08,-1.57761807408466e-05
-0.00143715151769826,0.00505728751762435,1.21906363190714e-05,-1.46812521231715e-05
-0.00142632731356188,0.00505781203852964,2.3265915771811e-05,-1.47484140328408e-05
-0.00141570576522981,0.00505536824794818,3.25128774618648e-05,-1.81955201438142e-05
-0.00140838631441512,0.00504944354590437,3.95293028522688e-05,-2.37497612708338e-05
-0.00140318878908091,0.00504423409964049,4.41551984008559e-05,-2.99960693783182e-05
-0.00140031584503149,0.00503768950925407,4.62154516734875e-05,-3.73767401399917e-05
-0.00140064963106213,0.00502891570502017,4.58407635445721e-05,-4.58261475934715e-05
-0.00140125759847507,0.00502318173785101,4.39972910971757e-05,-5.28268245691665e-05
-0.00140240200772297,0.00502203732860311,4.21809631263065e-05,-5.53902933677768e-05
-0.00140341528674455,0.00502380162619362,4.12793231275453e-05,-5.2792402767169e-05
-0.00140296229141726,0.00503169328163226,4.09023570717056e-05,-4.62031414259159e-05
-0.00140244969144164,0.00504270822064329,3.99817909630964e-05,-3.6583673989742e-05
-0.00140498884946041,0.00505535632701852,3.77759310312242e-05,-2.42805984775329e-05
-0.00140829094697779,0.00506948262867228,3.40452126325975e-05,-1.01848267591019e-05
-0.00141248711422009,0.00508544475349455,2.8501447148068e-05,4.21160082261762e-06
-0.00142011650920609,0.00509974986909329,2.04989909979759e-05,1.80861121665536e-05
-0.00143153675982575,0.00511424571956669,9.25625418169159e-06,3.12858784700607e-05
-0.00144519814522255,0.00512490303068775,-5.7149432710283e-06,4.24264535254197e-05
-0.00146334180017363,0.00513211519313545,-2.38915848637375e-05,4.83687694198358e-05
-0.00148146161326537,0.00513237745358809,-4.28487197680979e-05,4.73027395882228e-05
-0.00149701842647901,0.00512677461664525,-5.86049580253991e-05,4.1927306258347e-05
-0.00150661477485983,0.00512321025867523,-6.81848056713592e-05,3.75544420831523e-05
-0.00150897511893362,0.00512247116103596,-7.21685383401288e-05,3.65458968115821e-05
-0.00151132354207775,0.00512342483540921,-7.36316624153502e-05,3.64063471921141e-05
-0.00151090630953946,0.00512234003080964,-7.4054151714458e-05,3.43001977008943e-05
-0.00150778302596706,0.00511776239381804,-7.1450530008814e-05,3.14861897703799e-05
-0.00149986752866909,0.00511981279372053,-6.34740828508673e-05,3.13358217483042e-05
-0.00148736247344985,0.00512335330983122,-5.11903856375682e-05,3.43189952045329e-05
-0.00147349843224874,0.00512591630970933,-3.81441016090323e-05,3.74793087846064e-05
-0.00146256693974536,0.00512638122596629,-2.62816715880038e-05,3.83449637389057e-05
-0.00144956120548017,0.00512657196084094,-1.46582322396905e-05,3.67409378754236e-05
-0.00143762835488488,0.00512195856106034,-2.07550689332015e-06,3.27026767742903e-05
-0.00142436036016705,0.00511460334745665,1.10719405496926e-05,2.54863308653475e-05
-0.00141073473755924,0.00510466129211553,2.41764710169432e-05,1.5809651992661e-05
-0.00139759787306773,0.00509629279949026,3.77201368170755e-05,6.88202331435525e-06
-0.00138336428304698,0.00509130985089003,5.19368408467608e-05,1.58867662546823e-06
-0.00136946447905686,0.00508848459055928,6.54806108720206e-05,-4.91495116925721e-08
-0.00135867603770948,0.00508888990216791,7.67370685752929e-05,5.54758098177171e-07
-0.0013499976009129,0.00509229928805228,8.53872976549219e-05,3.06976584962427e-06
-0.00134428747560307,0.00509625703670126,9.12800928303752e-05,7.86189232671023e-06
-0.00134228475941925,0.00510174066434745,9.28515691067028e-05,1.42193008691707e-05
-0.00134755381033145,0.00510815412450755,8.86682916030524e-05,2.05913694092337e-05
-0.00135585077737872,0.0051132682033341,8.01359716882721e-05,2.59338637007677e-05
-0.00136510141879925,0.00511666566828881,7.06368218603498e-05,2.93864487052763e-05
-0.00137459047881308,0.00511477024047197,6.17952972297906e-05,2.91850752023546e-05
-0.00138453253415421,0.00510935813840378,5.23743166129167e-05,2.35433944825029e-05
-0.0013955951568839,0.00509856969705639,4.12394533778372e-05,1.28357934671124e-05
-0.00140696772378491,0.00508474141864427,2.94936414878288e-05,7.81534390071616e-08
-0.00141904362553618,0.00507323772151695,1.85495360052097e-05,-1.08672700403531e-05
-0.00143069037381949,0.00506575137768694,7.462698119252e-06,-1.74542470610137e-05
-0.0014435530569287,0.00506376058243278,-6.29149358762122e-06,-1.9752594940033e-05
-0.00146157750258312,0.00506241351738057,-2.38119642065638e-05,-2.04658468735547e-05
-0.00148249873414628,0.00505788356410763,-4.34697150785445e-05,-2.29883187373948e-05
-0.00150101193791699,0.00505315095503038,-6.21780848115587e-05,-2.84011008225644e-05
-0.00151534089537507,0.00504652291813629,-7.72304606604639e-05,-3.46114310433162e-05
-0.0015267015413464,0.00504097968584178,-8.74878253143958e-05,-3.89691410155775e-05
-0.00153385409914578,0.00503799945342537,-9.37992525708126e-05,-4.11740253127038e-05
-0.00153747806176412,0.00503561526749225,-9.80330504583411e-05,-4.3175512636251e-05
-0.00153974303840059,0.00503201514673323,-0.000100754478588147,-4.70614989034193e-05
-0.00154045829418053,0.00502444535639556,-9.98468044859153e-05,-5.34328550138175e-05
-0.00153273353175721,0.00501577884052866,-9.21881779745204e-05,-6.04861341762426e-05
-0.00151667603949762,0.00501379996620416,-7.69142369463787e-05,-6.39967160324313e-05
-0.001497054189268,0.00501625567771528,-5.67301927026881e-05,-6.01136789963709e-05
-0.00147707471114842,0.00502581626330711,-3.61338877760176e-05,-4.98264750545706e-05
-0.00145937213059498,0.0050365689418655,-1.86341990083041e-05,-3.91191983498839e-05
-0.00144571074519817,0.00504188567649637,-5.16524362857263e-06,-3.26764691021051e-05
-0.00143458851782015,0.00504699975532292,5.76929083548626e-06,-2.87263647919965e-05
-0.00142468222526802,0.00505197078299348,1.64951457340591e-05,-2.23155441702322e-05
-0.00141315468628136,0.00506097108489103,2.79221635931824e-05,-1.22113662112258e-05
-0.00140134104498273,0.00507310659129063,3.85551967854095e-05,-1.43429811488258e-06
-0.001394522273214,0.00508242875828914,4.61840585932302e-05,8.10561688881058e-06
-0.00139044531526836,0.00508991510211915,5.06179106002532e-05,1.74551946304562e-05
-0.00138608225501074,0.00509997636675694,5.39816831283411e-05,2.66398589371925e-05
-0.00138176687847178,0.0051064732734247,5.79518603680084e-05,3.28346097249446e-05
-0.00137878664605538,0.00510751039430561,6.15634765189268e-05,3.44582951193224e-05
-0.00137759455308882,0.00510677129666634,6.2567904067089e-05,3.41872850104805e-05
-0.00137847670188407,0.00510866672448318,6.02027972634241e-05,3.53937768346943e-05
-0.00138430603649056,0.00511007339418372,5.51966615730955e-05,3.74575798584271e-05
-0.00139193543147656,0.00511053831044068,4.73793922347021e-05,3.72197944077599e-05
-0.00140254505887896,0.00510754615709461,3.55563088341121e-05,3.41139191702424e-05
-0.00141727932794567,0.0051034215154303,2.08406882114134e-05,3.13147508152192e-05
-0.00143028506221086,0.0051053646269658,7.9765809488975e-06,3.17063234904207e-05
-0.00143662699679297,0.00510860711983485,6.58064385562857e-07,3.45204074123688e-05
-0.00144041785242664,0.00510991842209807,-3.74001023608987e-06,3.6618086871397e-05
-0.00144840487530261,0.00510904819423247,-1.16373264441758e-05,3.60769623254126e-05
-0.00146127947934148,0.00510791570591424,-2.49061294533761e-05,3.34711014614922e-05
-0.00147331961830375,0.00510510236651315,-3.80362632530542e-05,2.96176620879423e-05
-0.00147998341798683,0.00509678155760655,-4.50623158180474e-05,2.3359061663856e-05
-0.0014815212179137,0.00508748323246737,-4.63705170297735e-05,1.34171739702171e-05
-0.0014799953389165,0.00507934123750575,-4.60962751589145e-05,2.50495104788157e-06
-0.00147889861338726,0.00507236749365136,-4.54897323667954e-05,-3.1259742725211e-06
-0.00147613295770484,0.00507442981448351,-4.29358334538145e-05,-3.24604048415292e-07
-0.00147154339978358,0.00508303672570209,-3.91180946179135e-05,6.66051938492691e-06
-0.00146943339523276,0.00508915216262055,-3.71365850307325e-05,1.12401698761938e-05
-0.00146806248832121,0.0050889971905349,-3.696212355172e-05,1.21720325663994e-05
-0.00146521338613113,0.00508873493008226,-3.44376890388791e-05,1.25496584725058e-05
-0.0014583946143624,0.00509159595320201,-2.76666282595515e-05,1.24717500597565e-05
-0.00145013341010412,0.00508694679063241,-2.03826573049534e-05,7.96824549409775e-06
-0.00144523390801155,0.00507570535395773,-1.60402267723472e-05,-2.1762883577673e-06
-0.00143997677802901,0.00506572753582761,-1.15948857874221e-05,-1.37203184571746e-05
-0.00142968901572758,0.00505750209435833,-8.38857298519674e-07,-2.2978308545289e-05
-0.00141018637479462,0.00504957467613069,1.7558769819671e-05,-3.08285311761982e-05
-0.00138821610142089,0.00504198104393369,3.84057163504693e-05,-3.81878781890366e-05
-0.00137164600918567,0.00503950149056324,5.52739934567682e-05,-4.226331861398e-05
-0.00136210926545318,0.00504125386722409,6.46918930649873e-05,-4.11019316731287e-05
-0.0013592244004741,0.00504391223453952,6.62754179966645e-05,-3.7673249968946e-05
-0.00136270531193646,0.00504854947617945,6.2163273724726e-05,-3.46007410349348e-05
-0.00136914261395589,0.0050555709037525,5.64645657585066e-05,-2.83002947567019e-05
-0.001371741376623,0.00506873161010335,5.25760426609086e-05,-1.44546057159748e-05
-0.00137370833001782,0.00508694679063241,5.03313211774558e-05,2.38227302239855e-06
-0.00137679585080122,0.0050962093529826,4.7114370395936e-05,1.10703236359696e-05
-0.00138154038080814,0.00509122640438237,4.142894547802e-05,6.29184401707601e-06
-0.00138970621762909,0.00507990152120003,3.38887699881198e-05,-6.12228147333687e-06
-0.0013971210358811,0.00506886274032967,2.55821734472028e-05,-1.68662090717631e-05
-0.00140461930064078,0.00506542951258597,1.74610173020933e-05,-2.17517439797578e-05
-0.00141160496542483,0.00506505996376633,1.03560782020846e-05,-2.18331427525835e-05
-0.00141977080224578,0.00506714612645782,3.12928713568281e-06,-1.96594852139349e-05
-0.0014290929692443,0.00507054359141252,-8.15672027809667e-06,-1.78821865613091e-05
-0.00144715317768772,0.00506938726123495,-2.59344329972771e-05,-1.85593093917591e-05
-0.00146801480460255,0.00506676465670852,-4.62858069601903e-05,-2.11441041058787e-05
-0.00148297557133291,0.00506676465670852,-6.18296448285954e-05,-2.24847494272327e-05
-0.00149042615237392,0.00506811172176073,-6.97458230421075e-05,-2.0433751098818e-05
-0.00149418124521859,0.00507237941458103,-7.36336770350193e-05,-1.65787905121275e-05
-0.00149799594271159,0.00507520467491178,-7.70300240607892e-05,-1.4467929878964e-05
-0.00149980792402076,0.00507353574475859,-7.9005552651526e-05,-1.56462866943406e-05
-0.0014974714218063,0.00507165223787142,-7.75532550438209e-05,-1.76193359343453e-05
-0.00149395474755494,0.0050741556331012,-7.3388199698284e-05,-1.55770151446903e-05
-0.00148813733387812,0.00508235723271115,-6.77139389918808e-05,-7.37011913525322e-06
-0.00147963771102653,0.00509160787413167,-5.91096231686707e-05,2.39986953795004e-06
-0.00146552333030244,0.0050951007065237,-4.56519163772283e-05,5.60281503921882e-06
-0.0014484406380916,0.00508955747422918,-2.82584020162873e-05,3.38322385968052e-07
-0.00143022545756253,0.00508472949771461,-9.32627917410276e-06,-4.61752913605349e-06
-0.00140969761667833,0.00509041578116511,1.02404077202396e-05,1.42771223394745e-06
-0.00138976582227742,0.00510741502686829,3.00320782652437e-05,1.93655389664341e-05
-0.00137349375328384,0.005129707165343,4.77546220238811e-05,4.09881914548945e-05
-0.00135924824233343,0.00514740974589644,6.08543893643735e-05,5.94504855241732e-05
-0.00135015257299856,0.00516151220569087,6.97092145581431e-05,7.35715319258335e-05
-0.00134468086628204,0.00516824753095195,7.654134699539e-05,8.24569193556845e-05
-0.00133876808516789,0.00517038137736209,8.17392328892922e-05,8.28678811889615e-05
-0.00133661039689841,0.00516088039641859,8.37723957894543e-05,7.46040398116952e-05
-0.00133825548519227,0.0051482561319027,8.22963750243897e-05,6.35777427305031e-05
-0.00134267815009821,0.00514097244387701,7.87067444635308e-05,5.6150175671447e-05
-0.00134732731266781,0.00513721735103234,7.35852690860627e-05,5.32078767498671e-05
-0.00135418184722554,0.00513560802552748,6.59877649173597e-05,5.1677717214754e-05
-0.00136612661875049,0.00513089925830956,5.56298506742486e-05,4.85104777748931e-05
-0.00137754686937015,0.00512181550990435,4.38210967125075e-05,4.1235527599475e-05
