BCL,BCC,BCL_Filtered,BCC_Filtered
-,-,-,-
-0.00135592230295672,0.000527656109789378,2.12214002493529e-20,8.14367558150806e-22
-0.00136028536321434,0.000516450435903694,-1.04783800219108e-05,-1.27384015518214e-05
-0.00136438616301931,0.000503730803950477,-1.87574021857376e-05,-2.49977789089611e-05
-0.00136554249319687,0.000492310553330812,-2.56709093853556e-05,-3.61366280601933e-05
-0.00136666306058544,0.000485992460608033,-3.22194746275511e-05,-4.53977160662058e-05
-0.00136470802812028,0.000478398828411032,-3.56587870678231e-05,-5.24084210080326e-05
-0.00135605343318304,0.000473868875138096,-3.22003177017085e-05,-5.74927410831729e-05
-0.00134234436406758,0.000471258191541326,-2.29486329982869e-05,-6.08448091349656e-05
-0.00132664449969795,0.000472438363578222,-1.29700697603627e-05,-6.15520857112757e-05
-0.00131225593759155,0.000474905996019005,-3.70735766249676e-06,-5.8664818440902e-05
-0.00129524477095871,0.000481307535249444,9.34394965727659e-06,-5.35465722641261e-05
-0.00127006776750492,0.000486910372192286,2.8932058262868e-05,-4.95265375224916e-05
-0.00124536760123775,0.000488317041892829,4.97420829546028e-05,-4.79031025731338e-05
-0.00122679479281871,0.000493061571899746,6.37603182220768e-05,-4.54694098839061e-05
-0.00121579177473734,0.000501310855228356,6.95938525179027e-05,-3.79058600011401e-05
-0.00121061809126247,0.000514578849946192,7.18686585007246e-05,-2.52723561003351e-05
-0.00120579011474789,0.000529742272480862,7.27664291721234e-05,-1.23544535401612e-05
-0.00120379931949373,0.000539493592947339,6.98041132927958e-05,-3.54491117435116e-06
-0.00120778091000205,0.000545001062452856,6.26035008898774e-05,8.9277997330751e-07
-0.00121222741676732,0.000549829038967433,5.61426852747085e-05,3.20648833809901e-06
-0.00120940215643657,0.000551855597010588,5.42653009897697e-05,4.79622545790281e-06
-0.00120701797050345,0.000554788145708331,5.38290859935172e-05,5.73024987931133e-06
-0.00120955712852222,0.000558650526919992,4.89419236781667e-05,6.47163219882799e-06
-0.00121735341652354,0.000560438666369835,3.87016877304674e-05,8.52839794151919e-06
-0.00122597224867178,0.000567662749747202,2.73689095760408e-05,1.32187729967154e-05
-0.00123276717858119,0.000577938591118967,1.84378868746465e-05,2.00599166523845e-05
-0.00123730905278379,0.000584423576857065,1.18854518403887e-05,2.61220682249787e-05
-0.0012413264060811,0.000587952172038089,6.61261794614447e-06,2.72225368472718e-05
-0.00124386556409988,0.000584042107107765,2.56636489961665e-06,2.09639559791815e-05
-0.00124462850359848,0.000574958358702562,6.42979164455195e-08,9.12142003868923e-06
-0.00124485500126213,0.000563919577832197,-1.30180481836179e-06,-3.83821183731635e-06
-0.00124664314071197,0.000554275545732709,-2.91787513290343e-06,-1.5024031252982e-05
-0.00124944455918339,0.000548017057658259,-6.8325911045245e-06,-2.49653402899315e-05
-0.00125583417748417,0.000540006192922961,-1.39581174028568e-05,-3.49058585975821e-05
-0.00126330860038451,0.000533771546707841,-2.16886928583816e-05,-4.38672723752873e-05
-0.00126816041875842,0.000529682667832533,-2.54612739050354e-05,-4.96826312308341e-05
-0.00126732595368182,0.000530695946854111,-2.47094477015728e-05,-5.18529785149773e-05
-0.00126727826996316,0.000533926518793495,-2.5120398887078e-05,-5.16901257755285e-05
-0.00127499111145682,0.000537550481411843,-3.1889588674971e-05,-4.98746598406137e-05
-0.00128762729690238,0.000544762643859544,-4.22296626205693e-05,-4.51311829019552e-05
-0.00129358776173519,0.000557482275812762,-4.82771030737253e-05,-3.53900421009329e-05
-0.00129243143155762,0.000576043163302133,-4.67526110839302e-05,-1.97525508665071e-05
-0.00128993995725751,0.000598418748284504,-4.17348299489375e-05,6.47852846634818e-08
-0.00128823526431532,0.000618910826379706,-3.77293473027954e-05,1.94818825111258e-05
-0.00128530271561758,0.000636899509245128,-3.43204037314828e-05,3.33121660342564e-05
-0.00128136880882793,0.000646328964610634,-2.91992063066363e-05,3.9975136797073e-05
-0.00127878196709049,0.000650954285320895,-2.27020162482348e-05,4.32590782966505e-05
-0.00127459772077785,0.000658190289627927,-1.67130369350844e-05,4.84825211543278e-05
-0.00127048500004321,0.000670445005324185,-1.15542004430789e-05,5.69674766954776e-05
-0.0012683749954924,0.000681769888506525,-6.59486528556354e-06,6.5508621369119e-05
-0.0012675762932048,0.000686919730122073,-2.18371888628309e-06,7.08325679072364e-05
-0.00126584775840329,0.000692164939174946,1.49435097466769e-06,7.24910063332268e-05
-0.00126323707480652,0.000693726580961143,5.97442022941048e-06,7.09425489251677e-05
-0.0012607456005064,0.000688827078868573,1.22315423689344e-05,6.50927906724833e-05
-0.00125839717736227,0.000678730051441792,1.78620179224572e-05,5.36641707263024e-05
-0.00125857599130726,0.00066621307529289,1.94293887901631e-05,3.81343816142034e-05
-0.00126419074917977,0.00065230135037311,1.73448138263572e-05,2.23317881159023e-05
-0.00126920946056899,0.000639736690505546,1.56893972470185e-05,8.80328999821348e-06
-0.00127090223258151,0.000629425086344784,1.69174813284715e-05,-3.06373313575916e-06
-0.00127087839072218,0.000620281733291252,1.92459761659962e-05,-1.44669671784784e-05
-0.00127449043241086,0.000612032449962643,1.99871337367836e-05,-2.37001510063547e-05
-0.00127803094852155,0.000609612501240522,1.90501185408019e-05,-2.70249789734314e-05
-0.00128182180415522,0.000615227259113029,1.7779472706498e-05,-2.35608143839716e-05
-0.00128698356670043,0.000621199644875505,1.63162990167026e-05,-1.77432325199529e-05
-0.00129277713851792,0.000624620951689538,1.40765881803744e-05,-1.51883139256156e-05
-0.00129715211970521,0.000625264681891482,1.17100688281953e-05,-1.68242907441633e-05
-0.00130136020787717,0.000622189082037752,1.06215494310702e-05,-1.93399312747266e-05
-0.00130472191004288,0.000620400942587909,1.10550713067383e-05,-2.11926632553799e-05
-0.00130584247743144,0.000619149244973018,1.22736835202022e-05,-2.47561772264715e-05
-0.00130633123554774,0.000612664259234921,1.41631700919525e-05,-3.08274336181142e-05
-0.00130693920296068,0.000608837640812256,1.69279997033806e-05,-3.42604865483475e-05
-0.00130658157507071,0.000614690817278076,1.95528670596334e-05,-2.894336664982e-05
-0.00130836971452056,0.000628459491041868,2.06596393073503e-05,-1.61113757761838e-05
-0.00131006248653307,0.000639653243997886,2.10436993233926e-05,-4.02146814732877e-06
-0.00131026514233739,0.00064394477867751,2.30736356294072e-05,8.23529718052328e-07
-0.00130898960286317,0.000642979183374595,2.66684891517598e-05,-8.7692789266535e-07
-0.00131039627256371,0.000638031997563362,2.79509019989968e-05,-4.65395041973114e-06
-0.00131585605835057,0.000635480918614919,2.35125049721353e-05,-7.51056828919367e-06
-0.00132653721133096,0.000632977523385139,1.46491435303513e-05,-8.41923835376159e-06
-0.00133764751777932,0.000634300746578023,5.70921655979389e-06,-7.01461336746436e-06
-0.00134586103831893,0.0006360769650982,-7.4151929774099e-07,-4.45036011433417e-06
-0.0013511777729498,0.000636291541832181,-5.49629423955829e-06,-3.50853632336106e-06
-0.00135712631685295,0.000632965602455473,-1.04750898203753e-05,-5.21197139972595e-06
-0.00136542328390022,0.000630915202552986,-1.69334711656467e-05,-6.61804282564188e-06
-0.00137526997180402,0.000632357635042526,-2.53771878142029e-05,-4.32574878673794e-06
-0.00138404377603792,0.000635898151153216,-3.51470486901754e-05,9.91776694448802e-07
-0.00139354475698142,0.000640118160254846,-4.39650513213033e-05,6.0132666942789e-06
-0.0014013529659124,0.000641620197392714,-4.95234255974254e-05,9.62978033098259e-06
-0.00140252121701963,0.000644671955387113,-5.17080595943425e-05,1.33326406652692e-05
-0.00140193709146601,0.000646793880867593,-5.20238237022e-05,1.71770565840743e-05
-0.00140142449149039,0.000646746197148931,-5.10987029090813e-05,1.88800409983728e-05
-0.00139994629621186,0.000643646755435869,-4.82918023200522e-05,1.77931025835613e-05
-0.00139278181748282,0.000641512909025723,-4.34264604773007e-05,1.66225678037836e-05
-0.00138509281784849,0.000640761890456789,-3.69820650305715e-05,1.73137660588298e-05
-0.00137776144610414,0.000637614765025065,-2.86620350196797e-05,1.7520608877218e-05
-0.00136549480947821,0.00063310865361146,-1.78610348143038e-05,1.36232748568822e-05
-0.00135160692641776,0.000623977221487595,-5.63068962203726e-06,6.06425050872093e-06
-0.00133850582471525,0.000614416635895767,6.07061164056263e-06,-6.31944204276214e-07
-0.00132637031831564,0.000610744989558756,1.7153036968459e-05,-2.67216008982929e-06
-0.00131448515143902,0.000611949003454983,2.84471517420263e-05,5.89185601861024e-08
-0.00130276687757771,0.000614941156801054,3.71743376329702e-05,5.43783596946362e-06
-0.00130083568697188,0.000618946589168703,3.68574523613793e-05,1.13857886022864e-05
-0.00131343610962845,0.000622344054123405,2.42161894210335e-05,1.64739437173319e-05
-0.00133159168550919,0.000623273886637323,3.77879320560448e-06,1.99870846133558e-05
-0.00134806641030707,0.000623774565683279,-1.71217722926112e-05,2.20076090172013e-05
-0.00136768826053669,0.000622117556459758,-3.6105682087701e-05,2.24601681982691e-05
-0.00138400801324892,0.000617909468287794,-5.53790481980586e-05,2.01680437123474e-05
-0.00140008934736784,0.000609564817521859,-7.49323401634844e-05,1.43503790818236e-05
-0.0014139057048503,0.000600647962131975,-9.00138482861504e-05,6.95925758204116e-06
-0.00141780384885096,0.00059355500898093,-9.58047060680544e-05,1.34661295095977e-06
-0.001409673774819,0.000587332283695476,-9.15676466710495e-05,-1.98434192084182e-06
-0.00139578589175855,0.000581657921174641,-7.92616062651777e-05,-5.91596833762237e-06
-0.00137535341831168,0.000574696098249918,-6.08712680069738e-05,-1.17245682807431e-05
-0.00135092743342682,0.000567972693918508,-3.9083302205321e-05,-1.60602176464186e-05
-0.00132697828572859,0.000566971335826596,-1.88209294622761e-05,-1.53255094176687e-05
-0.00131245859339586,0.000569057498518079,-5.24840879781893e-06,-1.12334458239992e-05
-0.00130499609142519,0.000570023093820995,5.50803668283085e-07,-8.92740775821257e-06
-0.0012975693522435,0.000567030940474924,3.30513363894331e-06,-1.05230411231883e-05
-0.00128879554800961,0.000561761889562719,1.0676960425838e-05,-1.37601985448967e-05
-0.00127073533956619,0.000556421313072521,2.82512712970106e-05,-1.66715159173751e-05
-0.00123922832245996,0.000553715262038425,5.59265620180167e-05,-1.98906037989683e-05
-0.00120493180781196,0.000547730955346284,8.75859991324495e-05,-2.3553835985298e-05
-0.00117797858583799,0.00054343942066666,0.000114034398953887,-2.53479036444524e-05
-0.00116223103774971,0.000545275243835166,0.000127718951760127,-2.35001517267144e-05
-0.00116090781455683,0.000548660787860202,0.000126663835691359,-1.94437142197728e-05
-0.00117040879550033,0.000549721750600442,0.000115031669657108,-1.58666541679276e-05
-0.00118556029710533,0.000550663504044026,9.96632933913869e-05,-1.39781402480731e-05
-0.00119766004071594,0.000551044973793326,8.52576426582991e-05,-1.39473395327398e-05
-0.00120930678899925,0.000547385248385981,7.24269057992966e-05,-1.57820212175965e-05
-0.00122039325358827,0.000543928178782951,5.98876683787747e-05,-1.81633136936041e-05
-0.00123214729023858,0.000543153318354685,4.72624952406994e-05,-1.87097387762344e-05
-0.00124379403852189,0.000544559988055228,3.492900589307e-05,-1.72765889718821e-05
-0.0012550235542669,0.000543391736947998,2.24718004818907e-05,-1.6541708325943e-05
-0.00126734979554115,0.000543463262525991,9.46009664208286e-06,-1.70481206393655e-05
-0.00127832897176319,0.000545573267076806,-2.39561608995083e-06,-1.45820192435841e-05
-0.00128653057137314,0.000553631815530766,-1.01189117864283e-05,-6.07018094545813e-06
-0.00128872402243161,0.000563609633660891,-1.31750448461549e-05,4.35585776242385e-06
-0.00128914125496991,0.00056965354500136,-1.438802587877e-05,1.00399063601685e-05
-0.00129101284092741,0.000572001968145488,-1.60629272163739e-05,1.14335905245039e-05
-0.00129308708268923,0.000574159656414965,-1.67905549546799e-05,1.56583703397315e-05
-0.00128843792011964,0.00058664086977487,-1.35587170761813e-05,2.60049840199287e-05
-0.00128072507862598,0.000597941911097879,-6.07587776804676e-06,3.7145622260449e-05
-0.00127471693007451,0.000603544748040721,2.19073168801054e-06,4.27148753886521e-05
-0.00126992471634893,0.000603866613141692,6.60626563265991e-06,4.30476071210836e-05
-0.00127174861858777,0.000605082547967586,4.44349238365737e-06,4.23019351297829e-05
-0.00128072507862598,0.00060449842241397,-3.30844522652881e-06,4.14303504328056e-05
-0.00129100091999775,0.000601267850474587,-1.22953346233499e-05,3.79071736461438e-05
-0.00129716404063487,0.000595104729837461,-1.81900429220426e-05,3.05416106365488e-05
-0.00129969127772398,0.000587201153469154,-2.05380879095935e-05,2.10374821716956e-05
-0.00130273111478872,0.000578415428305592,-2.18875799676531e-05,1.17574979265413e-05
-0.00130463846353522,0.000572943721589072,-2.28496972422574e-05,4.81949547476603e-06
-0.001303327161272,0.000571405921662207,-2.0851770468785e-05,2.48522204158422e-06
-0.00129849918475742,0.000576388870262436,-1.52980565499736e-05,5.31289509605203e-06
-0.0012952805337477,0.000581944023486616,-1.06693631284936e-05,9.94216648831291e-06
-0.00129693754297123,0.000584971939621683,-1.11697770955553e-05,1.12890227711437e-05
-0.00130125291951018,0.000582063232783272,-1.44846289352389e-05,7.42017427041593e-06
-0.00130205162179778,0.000577878986470639,-1.48162908345892e-05,6.16072496227701e-07
-0.00129978664516131,0.000572013889075153,-1.09878901177919e-05,-6.34719296275713e-06
-0.0012980223475708,0.000566995177685927,-7.536191219625e-06,-1.31890554344417e-05
-0.00129863031498374,0.000560379061721507,-8.20402194464775e-06,-2.1301925349437e-05
-0.00130373247288063,0.000552153620252229,-1.22685649511951e-05,-3.15376755074668e-05
-0.00131100423997666,0.000543367895088666,-1.7282918159767e-05,-4.30042479701494e-05
-0.00131515272350029,0.000534093411808813,-2.13937617998078e-05,-5.29055266633371e-05
-0.00131691702109081,0.00053086283986943,-2.24420119070597e-05,-5.79775663411862e-05
-0.00131500967234431,0.000534343751331791,-1.90140767917858e-05,-5.7703230034964e-05
-0.00131068237487569,0.000538075002317131,-1.3820952563573e-05,-5.57064049303022e-05
-0.00131000288188475,0.000538361104629106,-1.22703726145178e-05,-5.58930220647218e-05
-0.00131361492357343,0.000539732011540652,-1.58478030174435e-05,-5.72986266865719e-05
-0.0013196945977029,0.00054507258803085,-2.02725424928112e-05,-5.5128787060112e-05
-0.00132265098825997,0.000554025206209731,-2.20835250986347e-05,-4.71954036419958e-05
-0.00132323511381359,0.000565004382431768,-2.34027966579243e-05,-3.65333616582468e-05
-0.00132869489960044,0.000579178367804191,-2.74300861389946e-05,-2.65165638440482e-05
-0.00133506067604188,0.000591683423023428,-3.2498208092059e-05,-1.63833139957259e-05
-0.00133668192247641,0.000603091752713427,-3.41753561301986e-05,-4.2452185813985e-06
-0.00133322485287338,0.000617694891553813,-3.10345227057767e-05,7.49113371824822e-06
-0.0013295055228177,0.000626945532974334,-2.48846540842129e-05,1.34846784629501e-05
-0.00132132776506709,0.000626421012069047,-1.71691118342706e-05,1.24085227308652e-05
-0.00131288774686383,0.000624430216814888,-8.83879855489781e-06,9.62539181685613e-06
-0.00130805977034925,0.00062935356076679,-2.46050460741722e-06,1.16698966196227e-05
-0.00130616434253242,0.000639021434725608,-4.80111795032806e-07,1.96662036334967e-05
-0.0013078690354746,0.00064971450863567,-1.61475098488537e-06,2.93059060188326e-05
-0.00130802400756025,0.000657272378043674,-2.07555814837575e-06,3.60564150622959e-05
-0.0013078690354746,0.00066237453594056,-1.3647530568328e-07,3.90400328590463e-05
-0.0013044000449419,0.000665581266020612,3.15559026078488e-06,4.05271165711979e-05
-0.00130051382187091,0.000668501893788689,6.97532869817686e-06,4.30908911560706e-05
-0.00129791505920381,0.000673413316810925,1.10679174405752e-05,4.7225034795144e-05
-0.001295733529075,0.000678885023527445,1.35292929678426e-05,5.07132223300398e-05
-0.00129737861736885,0.000679409544432732,1.20140014531886e-05,5.032062242978e-05
-0.0013025642217734,0.000674343149324843,7.74303978936619e-06,4.51335237132566e-05
-0.00130622394718074,0.000668120424039389,5.1217940235905e-06,3.83961126241877e-05
-0.00130486496119886,0.000666558782253193,6.5353869601043e-06,3.48657153722028e-05
-0.00130229004039109,0.000667130986877143,1.01576846531794e-05,3.5730471157148e-05
-0.00130020387769961,0.000668680707733673,1.33620961024613e-05,3.72181014447584e-05
-0.00129853494754642,0.000667512456626442,1.53520770452811e-05,3.51980802226174e-05
-0.00129938133355268,0.000662827531267853,1.5799541545223e-05,3.00447279922671e-05
-0.00130220659388343,0.000657784978019296,1.41292176427969e-05,2.52052409267212e-05
-0.00130566366348646,0.000653946438666966,1.14077977039818e-05,2.16233743351013e-05
-0.00130815513778658,0.000649106541222724,1.00894084710823e-05,1.62358190428577e-05
-0.00130928762610481,0.000639271774248586,1.06194442613922e-05,6.80701348203232e-06
-0.00130995519816608,0.000627970732925578,1.10291429436552e-05,-4.11540421470876e-06
-0.00131111152834365,0.000619816817034293,1.09010584561187e-05,-1.20488452920419e-05
-0.00131158836553027,0.000615358389339351,1.22882337097348e-05,-1.60531033422375e-05
-0.00131062277022736,0.000611639059283677,1.50658190306522e-05,-1.91396672187277e-05
-0.00131150491902261,0.000606429613019801,1.5274568986139e-05,-2.37576355812969e-05
-0.00131722696526211,0.000600647962131975,1.09876507116421e-05,-2.9087079584978e-05
-0.00132459409979547,0.000595545804235089,6.42536477567127e-06,-3.29064093533981e-05
-0.00132555969509838,0.000593471562473271,6.50970902597428e-06,-3.40608348966511e-05
-0.00132387884401553,0.000594961678681474,1.00337625374332e-05,-3.2391682602895e-05
-0.0013234735324069,0.000597822701801223,1.25562775598859e-05,-2.79126649911053e-05
-0.0013241649463275,0.000602901017838777,1.40963082535106e-05,-2.11747487879686e-05
-0.0013212204767001,0.000610101259356812,1.88845734312577e-05,-1.35312116566732e-05
-0.00131386526309641,0.000616633928813572,2.79310468045828e-05,-6.33402421065925e-06
-0.00130771406338895,0.000619328058918003,3.66765046432729e-05,-7.02604422898347e-07
-0.00130578287278312,0.000621008910000855,4.09035114832653e-05,1.60934533442234e-06
-0.00130687959831235,0.000617420710171503,4.12050380455918e-05,-1.36394178956031e-06
-0.00131058700743836,0.000606787240909769,4.04058591682748e-05,-9.43388958441587e-06
-0.00131278045849684,0.000595605408883417,3.97072329469751e-05,-1.93637763366588e-05
-0.00131663091877883,0.000586164032588245,3.88429673654451e-05,-2.73990289137575e-05
-0.00131918199772727,0.000580084358458779,3.75890349673938e-05,-3.17928033772469e-05
-0.00132353313705523,0.000578355823657264,3.56155424554073e-05,-3.20574329169084e-05
-0.00132906444842007,0.000581228767706678,3.24820990661821e-05,-2.75003059750573e-05
-0.00133459575978492,0.000587499176710795,2.85871310569698e-05,-1.86338571234377e-05
-0.00134080656414071,0.000597071683232288,2.44830609607011e-05,-8.9360255638164e-06
-0.00134801872658841,0.000601303613263584,1.89578524110696e-05,-2.29537669148017e-06
-0.00135927208419276,0.000602638757386133,1.00498414766548e-05,1.53578537757458e-06
-0.00137206324172397,0.000606727636261441,-1.36236217880966e-06,6.43455737536759e-06
-0.00138336428304698,0.000612807310390908,-1.12983024125048e-05,1.41189536212825e-05
-0.00139132746406361,0.00061764720783515,-1.70663952019779e-05,2.12825829237286e-05
-0.00139565476153223,0.000618696249645725,-1.99973424688275e-05,2.39265706715161e-05
-0.00139900454276827,0.000615751780018316,-2.2931511206992e-05,2.23623970684239e-05
-0.00140564450059202,0.000610995329081734,-2.70207013792729e-05,1.96941512895152e-05
-0.00141062744919225,0.000607383287393051,-3.19272095415753e-05,1.70188608372738e-05
-0.00141708859307102,0.000601112878388934,-3.68941929264482e-05,1.3225230174777e-05
-0.00142102249986067,0.00059527162285278,-4.02756478745141e-05,8.89776217079097e-06
-0.00142165430913295,0.000592267548577043,-4.02009788059731e-05,6.6867833471682e-06
-0.00141950854179314,0.000590610539353522,-3.74170010196842e-05,6.74792637015654e-06
-0.00141813763488159,0.000586295162814567,-3.56556429386695e-05,5.15669288467371e-06
-0.0014199734580501,0.000580799614238716,-3.75217616571716e-05,-5.808677730534e-07
-0.00142426499272972,0.000572681461136428,-4.16652597285958e-05,-6.56403618238101e-06
-0.00142803200650406,0.000571692023974182,-4.52793674697639e-05,-6.32277545469617e-06
-0.00142920025761129,0.00057752135858067,-4.68559115460105e-05,1.08973573500167e-06
-0.00142602929032023,0.000585854088416939,-4.44259441682662e-05,9.99243364651569e-06
-0.0014158130535968,0.000589323078949635,-3.43933595928698e-05,1.52112713067712e-05
-0.00139740713819308,0.000590920483524828,-1.67500376995225e-05,1.71238263719714e-05
-0.00138020523668559,0.000590491330056866,-3.25285875333082e-07,1.84282108311124e-05
-0.00137560375783466,0.000590002571940575,2.40622961590306e-06,1.89912211043612e-05
-0.00139052876177602,0.000587999855756751,-1.24414472031381e-05,1.66608398908965e-05
-0.00141187914680714,0.000581240688636344,-3.59124147980453e-05,1.15766158335144e-05
-0.00143002280175822,0.000575172935436543,-5.54791229805243e-05,6.52162742612319e-06
-0.00143938073154573,0.000571918521637828,-6.60036556325986e-05,3.0943384141205e-06
-0.00144096621519126,0.000568258796230483,-7.00155502818457e-05,8.22780277576101e-08
-0.00144020327569266,0.000563871894113534,-7.0242844186164e-05,-3.71263810020661e-06
-0.00143355139693924,0.000559902224534882,-6.59230624838051e-05,-6.96180175381832e-06
-0.00142155894169563,0.000559878382675551,-5.64659608613842e-05,-7.31032917381178e-06
-0.0014093638306477,0.000562477145342657,-4.53282314095604e-05,-4.46218798116558e-06
-0.00139852770558165,0.00056589845215669,-3.78647165977246e-05,-8.19814277042982e-07
-0.00139523752899394,0.000567102466052917,-3.58314143099958e-05,6.12098808163092e-07
-0.0013918877477579,0.000565385852181068,-3.53174526397986e-05,-1.47766325970578e-06
-0.00138362654349962,0.000560987029134454,-3.01095794408271e-05,-6.17826613469492e-06
-0.00136859425119127,0.000555658373573921,-1.64090638873089e-05,-1.17420175377794e-05
-0.00134440668489973,0.00054997209012342,5.226756466448e-06,-1.73745017065616e-05
-0.0013154626676716,0.000544357332250913,3.07613368469542e-05,-2.33383602929727e-05
-0.00128872402243161,0.000540292295234936,5.46237460549189e-05,-2.92704513835902e-05
-0.00127079494421452,0.000535357030353369,7.22527005476692e-05,-3.33564113873359e-05
-0.00125639446117845,0.0005353808722127,8.25866495173746e-05,-3.39008292559574e-05
-0.00124732263370291,0.000540494951039252,8.80440295998979e-05,-3.0828499661957e-05
-0.00124316222924961,0.000546908411199356,9.12980427344164e-05,-2.4638024497432e-05
-0.00123981244801357,0.00055677894096249,9.28317827678563e-05,-1.50231034620778e-05
-0.00123610503888756,0.000571000610053576,9.26007761975954e-05,-2.38001865438244e-06
-0.00123341090878313,0.000584757362887702,9.22269210405775e-05,1.00051275633408e-05
-0.00123308904368216,0.000592744385763668,9.25212884970394e-05,1.76637507199404e-05
-0.00123322017390848,0.000595617329813083,8.95533517310401e-05,1.90913345949824e-05
-0.00124188668977539,0.000594162976393877,7.73447038043086e-05,1.62992837261088e-05
-0.00126163967023132,0.000590086018448235,5.59717261576488e-05,1.11732109814979e-05
-0.00128316886920743,0.000583875214092446,3.37221677905296e-05,3.71909720943014e-06
-0.00129547126862235,0.000576436553981099,1.87671121860346e-05,-5.33765150090225e-06
-0.00130087144976088,0.000569677386860692,1.09698705995238e-05,-1.28208750279882e-05
-0.0013055802169788,0.000568604503190786,4.53697002332089e-06,-1.5911735141311e-05
-0.0013131738491758,0.000570166144976982,-3.23258000614512e-06,-1.53897648755134e-05
-0.00131703623038746,0.000572061572793816,-9.38125151447047e-06,-1.46821105488562e-05
-0.00131655939320084,0.000572001968145488,-1.09349508354801e-05,-1.68104525860624e-05
-0.00131454475608735,0.000566232238187327,-9.84071007088428e-06,-2.30966596130275e-05
-0.00131609447694388,0.000558424029256346,-1.13246611418298e-05,-3.27742172948113e-05
-0.00132163770923839,0.000551068815652657,-1.88109142459761e-05,-4.19279531244778e-05
-0.00133212812734414,0.000548660787860202,-3.08055246057332e-05,-4.46174896795125e-05
-0.00134347685238581,0.000557279620008446,-4.18416261497247e-05,-3.80431886871728e-05
-0.00134779222892476,0.000570547614726282,-4.67682906777685e-05,-2.63613112638102e-05
-0.00134539612206197,0.000580143963107107,-4.5160072426364e-05,-1.71314201209499e-05
-0.00134052046182874,0.000585317646581986,-4.1106394137753e-05,-1.38623578193057e-05
-0.00133796938288029,0.000586664711634201,-3.7919772293567e-05,-1.36206673057617e-05
-0.00133384474121599,0.000589370762668297,-3.43243324829653e-05,-1.15847758767863e-05
-0.00132700212758792,0.000596797501849979,-2.72953982860297e-05,-5.85719517791081e-06
-0.00131683357458315,0.000605618989802539,-1.70458312205177e-05,2.32635199781623e-06
-0.00130625970996974,0.000615036524238379,-6.61431827349207e-06,1.10032938540859e-05
-0.00129822500337511,0.000624597109830207,2.53063320479539e-06,1.92199952428605e-05
-0.00128971345959386,0.000633549728009088,1.12530165670098e-05,2.76115421252093e-05
-0.0012823820878495,0.000644099750763163,1.90746577548683e-05,3.77040376872476e-05
-0.00127878196709049,0.000657033959450362,2.30805700972741e-05,4.94577424065627e-05
-0.00128132112510926,0.000666832963635502,2.18275722162197e-05,5.93429964802241e-05
-0.00128645904579515,0.000670766870425157,1.78684389813351e-05,6.25806100063436e-05
-0.00129009492934316,0.000667440931048449,1.45242414989691e-05,5.82071604342041e-05
-0.00129387386404716,0.000658869782618867,1.16894866539865e-05,5.07266797119808e-05
-0.0013006568730269,0.000654733220024897,6.73764280874352e-06,4.58143629705931e-05
-0.00131011017025174,0.000655388871156506,-1.1915077957114e-06,4.5274024885638e-05
-0.00131865747682199,0.000655150452563193,-9.53920938960141e-06,4.69027342571281e-05
-0.00132565506253571,0.00065701011759103,-1.49282129089735e-05,4.79998362324196e-05
-0.00132929094608372,0.000656676331560393,-1.63162633979052e-05,4.75132713148767e-05
-0.00132975586234068,0.000653719941003319,-1.5340197763156e-05,4.54286886066624e-05
-0.00132896908098275,0.000650298634189286,-1.41938702044346e-05,4.19660734742192e-05
-0.00133087642972925,0.000645208397222066,-1.37168905442445e-05,3.7951030231429e-05
-0.00133299835520973,0.000642049350860676,-1.36285269732169e-05,3.4884980040176e-05
-0.00133435734119161,0.000640499630004145,-1.39711777045348e-05,3.36315956145082e-05
-0.00133694418292905,0.000638544597538984,-1.50608111089227e-05,3.3021483337207e-05
-0.0013397694432598,0.000634682216327322,-1.564482347584e-05,3.01830865678635e-05
-0.00133861311308224,0.000627052821341325,-1.27505384678138e-05,2.25572576869559e-05
-0.00133284338312408,0.000613212621999539,-5.20403036147153e-06,9.79778280304231e-06
-0.001326143820652,0.000595700776320742,3.29268044511307e-06,-6.13251537645729e-06
-0.00132410534167918,0.000578272377149604,6.76612398908984e-06,-2.26195434173788e-05
-0.00133022077859764,0.000562322173257004,3.20226419802919e-06,-3.80417794572406e-05
-0.00133835085262959,0.000547623666979293,-3.23937912312682e-06,-5.17966631083867e-05
-0.00134357221982314,0.000533866914145166,-6.79943594253081e-06,-6.31627541433435e-05
-0.00134391792678344,0.000525629551746222,-5.65146186188641e-06,-7.09231914300043e-05
-0.00134325035472216,0.000521576435659911,-2.20669034250833e-06,-7.45065692765845e-05
-0.00134168871293597,0.000519084961359797,7.28388630947548e-07,-7.50331367267931e-05
-0.0013416767920063,0.000517702133518585,2.60028262715533e-06,-7.44282764086222e-05
-0.00134147413620199,0.000519287617164112,4.35702454681384e-06,-7.33172599852575e-05
-0.00134137876876466,0.000520050556662712,6.66888175701501e-06,-7.04183747571761e-05
-0.00134046085718041,0.000524652035513642,9.67288457240695e-06,-6.45226200716434e-05
-0.00133761175499032,0.000531554253790036,1.37528114454316e-05,-5.65816563012051e-05
-0.00133371361098967,0.000538718732519074,1.9241229487565e-05,-4.88857547017591e-05
-0.00133048303905028,0.000543546709033651,2.48397395044647e-05,-4.22074156372161e-05
-0.0013295412856067,0.000549912485475092,2.73610451664369e-05,-3.48902953425424e-05
-0.00133413084352796,0.000559508833855917,2.45004543855186e-05,-2.52034227925956e-05
-0.0013417125547953,0.00056954625663437,1.77839738992875e-05,-1.33814412994412e-05
-0.00135049827995886,0.000581538711877984,1.12818369454184e-05,-3.61218563104128e-07
-0.00135722168429027,0.000596416032100679,7.05633592648608e-06,1.42430763102939e-05
-0.00136063107017464,0.000612473524360271,3.50419188144793e-06,3.10228977427895e-05
-0.00136718758149073,0.000627470053879622,-1.02779771122929e-06,4.82254905236209e-05
-0.00137324341376087,0.00064318183917891,-4.93424665114656e-06,6.26941497117796e-05
-0.00137497194856238,0.000653970280526297,-5.51792092457454e-06,7.37601915771058e-05
-0.00137391098582214,0.000662851373127185,-3.19959375830754e-06,8.40117290632984e-05
-0.00137259968355892,0.000673925916786546,-1.17013830478961e-06,9.51359809046845e-05
-0.00137492426484372,0.000684690516274602,-1.09447748433974e-06,0.000104837593799102
-0.00137635477640359,0.000688624423064257,-1.33586034513331e-06,0.000109319540271701
-0.00137531765552268,0.000686538260372773,1.45070389564747e-07,0.000107291836620505
-0.00137398251140013,0.000679588358377716,2.87451605741555e-06,9.98450036383846e-05
-0.00137343414863552,0.000668120424039389,4.72452663628269e-06,8.78057436922042e-05
-0.00137506731599971,0.000653123894520038,4.73066558288174e-06,7.16162236299308e-05
-0.00137578257177964,0.000634193458211032,4.27541626506908e-06,5.31815595081154e-05
-0.00137494810670305,0.000617468393890166,5.71890787263714e-06,3.52104524723093e-05
-0.00137213476730196,0.000602066552762184,9.95910496565364e-06,1.828659727703e-05
-0.00136915453488556,0.000585067307059008,1.5050748882777e-05,4.74895597095451e-07
-0.00136574514900119,0.000565755401000702,1.74256698382626e-05,-1.95736788348664e-05
-0.00136860617212094,0.000546228918208415,1.48479973480211e-05,-4.05488230745695e-05
-0.00137858399025106,0.000528526337654968,7.85215378753451e-06,-5.99352452780968e-05
-0.00138875254325584,0.000514090091829901,-1.94490632953158e-06,-7.61654136851274e-05
-0.00139870651952663,0.000502193004023612,-1.40470743484588e-05,-8.89330423175779e-05
-0.00141620644427576,0.000493752985820352,-2.87964271754773e-05,-9.89076214267573e-05
-0.0014343977829455,0.000487494497745901,-4.5554979902521e-05,-0.000107852734351974
-0.00144919165666054,0.000479555158588598,-6.20351919495604e-05,-0.000117531293871385
-0.00146292456763533,0.000471103219455672,-7.50614858162359e-05,-0.000127340277013574
-0.00147100695794862,0.000465703038317146,-8.17004068220239e-05,-0.000134063655021128
-0.00146981486498206,0.000468349484702914,-8.07522504719318e-05,-0.000135085792373461
-0.00146265038625302,0.000474679498355359,-7.38910509798205e-05,-0.000131013382529228
-0.00145363816342581,0.000481009512007803,-6.42718580631757e-05,-0.000124060483036411
-0.00144280203835976,0.000494551688107949,-5.33307779545269e-05,-0.00011472427162112
-0.00142976054130557,0.00051060918036754,-4.03411451607107e-05,-0.000101438458711351
-0.00141512163967619,0.000530123742230162,-2.57311782839232e-05,-8.30639810059707e-05
-0.00140186556588802,0.000553464922515447,-1.24272171257021e-05,-6.05422221231086e-05
-0.00139106520361097,0.000581634079315309,-2.02360384521799e-06,-3.65249371713464e-05
-0.00138070591573154,0.000605869329325517,8.31225814490076e-06,-1.44479608146494e-05
-0.00136653193035912,0.000623822249401942,2.26038540878846e-05,2.88410549934196e-06
-0.00134714849872282,0.000638413467312662,4.1184895704157e-05,1.56576347469544e-05
-0.00132675178806494,0.000654077568893288,6.12890951429076e-05,2.76242509075791e-05
-0.00130732067270998,0.000669550935599264,8.05365484859122e-05,4.20658774386703e-05
-0.00129101284092741,0.000685346167406211,9.67703220954603e-05,5.69461556652599e-05
-0.00128020055772069,0.000697267097071832,0.000106353292443792,6.6595521833419e-05
-0.00127922304148811,0.000702190441023734,0.000106886490016133,6.9314056582354e-05
-0.00128551729235156,0.000704574626956858,0.000100945832350112,7.07638592907624e-05
-0.00129159696648103,0.000712049049857202,9.30789455637498e-05,7.74794305776645e-05
-0.00130119331486185,0.000725245518997044,8.35446253240901e-05,8.86113328841195e-05
-0.00131448515143902,0.000734591527854891,6.93983552268539e-05,9.69322095932223e-05
-0.00133116253204122,0.000735533281298475,5.16712533318391e-05,9.73524283056136e-05
-0.00134609945691225,0.000730526490838914,3.63026411795577e-05,9.14820972675832e-05
-0.00135549314948876,0.000723862691155832,2.6557320070291e-05,8.36905259783937e-05
-0.00136091717248661,0.000716018719435854,1.90143954485791e-05,7.58996421483895e-05
-0.00137081154410908,0.000708246273293869,8.92688931972834e-06,6.78112088572914e-05
-0.00138430603649056,0.000701236766650484,-4.51463922029856e-06,5.98999570176623e-05
-0.00139747866377107,0.000694310706514758,-2.01170309236589e-05,5.37434205395942e-05
-0.00141410836065461,0.000690317195076775,-3.73467149078637e-05,5.00918260097704e-05
-0.00143049963894484,0.000689041655602554,-5.40666064301753e-05,4.82497555622679e-05
-0.00144076355938694,0.000686991255700067,-6.55282705914136e-05,4.7056865086868e-05
-0.00144305237788274,0.00068398718142433,-6.9337583509014e-05,4.54978822702811e-05
-0.00144172915468986,0.000681364576897894,-6.86634957981328e-05,4.28756619993997e-05
-0.0014393568896864,0.000676608125961311,-6.732179345006e-05,3.92738478405516e-05
-0.00143584021543504,0.000671434442486432,-6.46948076224747e-05,3.53209525553474e-05
-0.00142927178318928,0.000665307084638303,-5.9255368608043e-05,3.0889065573755e-05
-0.0014226079835062,0.000658035317542274,-5.41874114438081e-05,2.49839922699163e-05
-0.00142278679745119,0.000649619141198345,-5.45766552174296e-05,1.77345472115729e-05
-0.00142716177863847,0.000641119518346758,-6.02576432612174e-05,1.12330793476006e-05
-0.00143164404819274,0.000634086169844041,-6.56870006144115e-05,7.04554759865849e-06
-0.00143046387615585,0.000630152263054386,-6.62023405463904e-05,3.93681715960347e-06
-0.00142490872293167,0.000623273886637323,-6.09124379239267e-05,-3.2649952753979e-07
-0.00141397723042829,0.000615155733535035,-5.06109494995097e-05,-5.80947110289735e-06
-0.0013986469148783,0.000607883966439007,-3.69738521552662e-05,-1.09250204092084e-05
-0.00138344772955464,0.000600874459795622,-2.33175581508971e-05,-1.54657672667598e-05
-0.00137298115330822,0.000592541729959353,-1.21867487799165e-05,-2.09300573150334e-05
-0.00136207350266418,0.000583314930398162,-2.2907530537486e-06,-2.7897889365821e-05
-0.00134842403819704,0.000573134456463722,8.66325759438917e-06,-3.51763496580545e-05
-0.00133888729446455,0.000562906298810619,1.86214730082544e-05,-4.19201669816482e-05
-0.00133523948998687,0.000554037127139397,2.28462551188379e-05,-4.88013195079323e-05
-0.00133394010865331,0.000543689760189638,2.10312033025554e-05,-5.64750409137949e-05
-0.00133661039689841,0.000531959565398667,1.85105418288657e-05,-6.42911138500234e-05
-0.00133543022486152,0.00052231553329918,1.9672174050673e-05,-7.10427555543732e-05
-0.00132997043907466,0.000515735180123757,2.41740931692367e-05,-7.58200752213374e-05
-0.00132288940685328,0.000510442287352221,3.04821606082123e-05,-7.78941450899629e-05
-0.00131403215611173,0.000506925613100863,3.85522924238519e-05,-7.71231770167664e-05
-0.00130572326813479,0.000507855445614782,4.70069596418883e-05,-7.47250885736504e-05
-0.00130072839860489,0.000507545501443475,5.1936964890807e-05,-7.20694765997158e-05
-0.00129940517541201,0.000508856803706694,5.17579257988503e-05,-6.81483072258795e-05
-0.00130075224046422,0.000513398677909295,5.04035503741007e-05,-5.97820054867491e-05
-0.00129922636146703,0.00052596333777686,5.25148749916065e-05,-4.52940356739363e-05
-0.00129374273382084,0.00054275992767572,5.74642266349058e-05,-2.7038327098828e-05
-0.00128933198984456,0.000556278261916534,6.0965167042652e-05,-9.67961290162453e-06
-0.00128961809215653,0.000566792521881611,6.07924518276893e-05,3.18625406339215e-06
-0.00129376657568017,0.000572824512292416,5.7886066406339e-05,1.06296554860292e-05
-0.0012976051150325,0.000574457679656606,5.30450842023279e-05,1.43016486536877e-05
-0.00130407817984093,0.000575375591240858,4.57508063896245e-05,1.76806873697098e-05
-0.00131528385372662,0.000580012832880785,3.61800245284748e-05,2.41458504943911e-05
-0.00132544048580173,0.000588727032466354,2.60208334818853e-05,3.45230995539483e-05
-0.00133420236910596,0.000600504910975987,1.69755813034305e-05,4.68002385499708e-05
-0.00134085424785937,0.000609791315185506,9.83474034965232e-06,5.84925512414372e-05
-0.00134764917776878,0.000618493593841409,4.93334413628608e-06,6.85388598915854e-05
-0.00135028370322488,0.000626552142295369,2.25975037761546e-06,7.68709452613947e-05
-0.00135113008923114,0.000632417239690854,1.02724264885234e-06,8.34461533333408e-05
-0.00135277517752499,0.000635862388364219,-1.53216578837086e-07,8.81212605683693e-05
-0.00135673292617398,0.000637400188291084,-2.62214678251816e-06,9.02740665801014e-05
-0.00136135824688424,0.00063550476047425,-6.98970858667031e-06,8.81949683729531e-05
-0.00136617430246915,0.000627708472472934,-1.22290317741864e-05,8.01907117802726e-05
-0.00137084730689808,0.000613462961522517,-1.58706405797884e-05,6.67009504631796e-05
-0.00137354143700251,0.000597274339036604,-1.70735642708172e-05,4.99539183387855e-05
-0.00137596138572463,0.000579166446874526,-1.95803693556768e-05,3.1321492231074e-05
-0.0013854027620198,0.00055947307106692,-2.87908587746359e-05,1.09211951610384e-05
-0.00140250929608996,0.000539732011540652,-4.46654140006619e-05,-9.68190773740306e-06
-0.00141906746739551,0.000522947342571458,-6.03109451934185e-05,-2.68883546450416e-05
-0.00142916449482229,0.000512194664013068,-6.96794638484251e-05,-3.87498776523269e-05
-0.00143356331786891,0.00050609114802427,-7.41929102697326e-05,-4.73267393636565e-05
-0.00143979796408403,0.000498294860022954,-7.90595474771276e-05,-5.55642599342345e-05
-0.00144741543814036,0.000491654902199203,-8.52455836486205e-05,-6.34251027987847e-05
-0.00145066985193907,0.000488448172119151,-8.86683753914005e-05,-6.91098248445616e-05
-0.00144891747527823,0.000486981897770279,-8.60791467393327e-05,-7.26791019187746e-05
-0.00144203909886116,0.000485575228069736,-7.78485945573998e-05,-7.59713267338668e-05
-0.00142996319710989,0.000482940702613634,-6.51813482939699e-05,-7.95355064448952e-05
-0.00141426333274027,0.00048401358628354,-4.84944211094493e-05,-8.19003356921115e-05
-0.00139551171037625,0.000487542181464564,-2.95250758374e-05,-8.17994358588682e-05
-0.00137920387859368,0.000490069418553675,-1.18005340854821e-05,-7.94303192065964e-05
-0.00136553057226721,0.000497174292634385,2.90777118270116e-06,-7.56446451478563e-05
-0.00135178574036275,0.000505399734103664,1.67794924082069e-05,-7.13207154886846e-05
-0.00133718260152236,0.000511050254765168,3.28862575973228e-05,-6.72295958764971e-05
-0.00131948002096892,0.000518357784650194,5.07938380826709e-05,-6.30447006842248e-05
-0.00130559213790847,0.000526821644712784,6.62863171380833e-05,-5.6705081280427e-05
-0.00129737861736885,0.000541448625412501,7.49843902585832e-05,-4.61159512690803e-05
-0.0012971878824942,0.00055928233619227,7.57318631953671e-05,-3.12719979565492e-05
-0.00130319603104568,0.000578427349235257,7.08822211229319e-05,-1.36617967858941e-05
-0.0013116479701786,0.000601065194670271,6.3656029470948e-05,5.53867179108705e-06
-0.00132011183024119,0.000624871291212516,5.53491200741393e-05,2.4870993857714e-05
-0.00133100755995557,0.000642240085735326,4.56794758126755e-05,4.08646869305538e-05
-0.00134173639665463,0.000653493443339672,3.57572724705084e-05,4.94568674265015e-05
-0.00134977110324926,0.000657928029175283,2.88056873655574e-05,4.98230968886215e-05
-0.00135256060079101,0.000656080285077112,2.65105210490023e-05,4.52723792839124e-05
-0.00135397919142122,0.000652861634067394,2.61792303623936e-05,3.98937111720625e-05
-0.00135743626102425,0.00065134767599986,2.36438081652038e-05,3.56251328393604e-05
-0.00136388548397335,0.000652086773639129,1.80427336404961e-05,3.27450824529393e-05
-0.00137115725106938,0.000652551689896088,1.1583168918078e-05,3.12946364923686e-05
-0.00137816675771277,0.000654804745602891,5.56291784063855e-06,3.08763521699137e-05
-0.0013854027620198,0.000656557122263737,-6.29420611294736e-07,3.02787291986507e-05
-0.00139251955703017,0.000657761136159964,-7.09927419456371e-06,2.87250497220267e-05
-0.00139942177530657,0.000658321419854249,-1.3138149144884e-05,2.72590222135322e-05
-0.00140746840283086,0.000661563912723298,-1.94548827370307e-05,2.80753643414062e-05
-0.00141563423965181,0.000667166749666139,-2.76076845826792e-05,3.24275222918092e-05
-0.00142540940197762,0.000677228014303923,-3.64529047073649e-05,3.94530698364252e-05
-0.00143301495510429,0.00068638328828712,-4.19867156805827e-05,4.6968225876704e-05
-0.00143314608533061,0.000693547767016158,-4.19067314890089e-05,5.32715571315544e-05
-0.00142961749014959,0.000700628799237537,-3.79691921733412e-05,5.81561124408211e-05
-0.00142643460192887,0.000706410450125363,-3.27075022898692e-05,6.21197740087519e-05
-0.00142107018357934,0.000710213226688696,-2.63309776534514e-05,6.48148975793686e-05
-0.0014131785281407,0.000710487408071006,-1.85331002984522e-05,6.48070994141839e-05
-0.00140769490049451,0.000708711189550828,-1.11136440255702e-05,6.08228761148006e-05
-0.00140407093787616,0.000701439422454799,-6.41275297511106e-06,5.25755784168492e-05
-0.00140256890073829,0.000689637702085835,-4.19601658081234e-06,4.05910314189431e-05
-0.0014013529659124,0.000675892870181374,-2.07471638500651e-06,2.65193413921221e-05
-0.00139949330088456,0.000664651433506693,1.32139290746163e-06,1.36523267389761e-05
-0.00139691838007679,0.000656557122263737,4.80254364519965e-06,5.16805710337443e-06
-0.00139617928243752,0.000651383438788857,6.11617914411727e-06,9.2422810566927e-07
-0.00139956482646256,0.000648963490066736,4.62983992159776e-06,-2.32321588304763e-06
-0.0014017344356617,0.000645625629760362,2.89426475638593e-06,-6.55325068661805e-06
-0.0014005542636248,0.000640642681160133,5.06873285553036e-06,-1.04731574081547e-05
-0.00139489182203363,0.0006376028440954,1.24938584916462e-05,-1.33517036711617e-05
-0.00138623722709639,0.00063281063036982,2.13158561099117e-05,-1.80989444032087e-05
-0.00138243445053306,0.000623464621511973,2.64429545016823e-05,-2.74042871290207e-05
-0.00138306625980534,0.000611579454635349,2.741056670126e-05,-3.86464301910697e-05
-0.0013827324737747,0.000602197682988505,2.76142628998002e-05,-4.65215605030815e-05
-0.00138415106440491,0.000599205529642435,2.78982044332648e-05,-5.00226511117672e-05
-0.00138831146885821,0.000595545804235089,2.47625407415046e-05,-5.28607037768843e-05
-0.00139738329633375,0.000589740311487932,1.63136331721197e-05,-5.68598938307594e-05
-0.00140794524001749,0.000587558781359123,6.35731773329102e-06,-5.89117953403708e-05
-0.00141549118849583,0.000589942967292247,6.93407060348141e-09,-5.55933401220919e-05
-0.0014192462813405,0.000596392190241348,-2.19217645338797e-06,-4.74924069326058e-05
-0.00141946085807448,0.000605726278169529,-3.1748018405391e-06,-3.75289015870754e-05
-0.00142227419747556,0.000614559687051754,-4.659197804598e-06,-2.78220640911005e-05
-0.00142558821592261,0.000620400942587909,-6.35770912422928e-06,-1.96578897979456e-05
-0.00142704256934181,0.000625741519078107,-8.05934916247969e-06,-1.37668207742339e-05
-0.00142875918321366,0.000630331076999371,-9.46786401913276e-06,-8.80025318651289e-06
-0.00142930754597828,0.00063406232798471,-9.05689155236899e-06,-1.92411505093088e-06
-0.00142706641120114,0.000642216243875995,-5.76786526955334e-06,7.14407128202977e-06
-0.00142209538353058,0.00064979795514333,-1.10992874372431e-06,1.47345371231187e-05
-0.00141873368136487,0.000650000610947645,2.52959637361979e-06,1.75941634138773e-05
-0.00141712435586002,0.000647032299460906,4.63506515284011e-06,1.65325169493072e-05
-0.00141694554191503,0.000644016304255504,5.66073628979207e-06,1.39688129492733e-05
-0.00141735085352366,0.000639176406811262,4.86545794604098e-06,1.04296757229391e-05
-0.00142066487197071,0.00063213113737888,1.52049681298009e-06,6.09423376836324e-06
-0.00142480143456468,0.000628936328228493,-2.93830952619692e-06,3.46626180661794e-06
-0.00143014201105487,0.000628542937549528,-6.44332057661414e-06,4.84338024871833e-06
-0.00143070229474916,0.000630438365366361,-8.78606858838841e-06,8.13146992385105e-06
-0.00143191822957505,0.000629138984032809,-1.01788075559822e-05,8.65849942145636e-06
-0.00143097647613147,0.000624513663322548,-9.03775750331687e-06,5.05728492495855e-06
-0.00142706641120114,0.000617897547358128,-4.4600726808685e-06,5.15105287678556e-07
-0.00142099865800134,0.000614130533583792,4.41815191925253e-07,-1.87866575442884e-06
-0.0014180303465146,0.000612866915039236,1.51447562981551e-06,-2.33918585287896e-06
-0.00142217883003824,0.000610303915161128,-7.71662894117022e-07,-2.55348871397581e-06
-0.00142325171370815,0.000607883966439007,-2.45027206377662e-06,-3.18591430489739e-06
-0.00142101057893101,0.000606584585105454,-2.44941221486049e-06,-4.24159437116714e-06
-0.00142176159749994,0.00060267452017513,-3.6425067731853e-06,-6.09315933266537e-06
-0.00142626770891355,0.000597596204137576,-7.21926261904197e-06,-8.92232874842951e-06
-0.00142773398326242,0.000593853032222571,-1.0283781354929e-05,-1.21129355487943e-05
-0.00142608889496856,0.00058941844638696,-1.01057901051007e-05,-1.49951018459825e-05
-0.00142216690910857,0.000585281883792989,-6.80979358257895e-06,-1.75482752973968e-05
-0.00141580113266713,0.000581038032832028,-6.57204513617003e-07,-1.99452812772179e-05
-0.00140566834245135,0.000578200851571611,8.75534947706295e-06,-2.19177692989618e-05
-0.00139431961740968,0.000575757060990158,1.79402987821294e-05,-2.27080248353839e-05
-0.00139292486863881,0.000575816665638486,1.83711389821663e-05,-2.12530163144066e-05
-0.00140708693308156,0.000579106842226198,4.47679018960585e-06,-1.67794423326253e-05
-0.00142933138783761,0.00058356526992114,-1.87225701825592e-05,-9.99221048874578e-06
-0.00144665249864176,0.000590217148674556,-3.95587018809038e-05,-3.2753984006422e-06
-0.00145863303295571,0.00059287551598999,-5.06341972253667e-05,1.37872939847828e-06
-0.00146082648401418,0.000594520604283846,-5.32020629379946e-05,4.56443925295933e-06
-0.00145652302840489,0.000597107446021285,-5.18540343648753e-05,8.66675041000156e-06
-0.00145252951696691,0.000602829492260783,-4.86640274811105e-05,1.49347756949242e-05
-0.00144748696371835,0.000608551538500281,-4.34749916840641e-05,2.21458519254968e-05
-0.00143908270830409,0.000611949003454983,-3.71808879236045e-05,2.80048339592294e-05
-0.00143303879696362,0.000615108049816373,-3.23091934684377e-05,3.10409517705213e-05
-0.00143052348080417,0.000613594091748839,-3.03628208081512e-05,3.13927707157657e-05
-0.00142866381577634,0.000611734426721002,-2.95993901685348e-05,3.07956064395336e-05
-0.0014234066857938,0.000611782110439665,-2.62567651757841e-05,3.18159613124511e-05
-0.00141576536987814,0.000613760984764158,-1.83157136321301e-05,3.6057420945608e-05
-0.00140304573792492,0.000621044672789852,-7.33972484924948e-06,4.26280633873492e-05
-0.00139009960830805,0.000624513663322548,4.5882771141725e-06,4.86782448628524e-05
-0.00137435206021977,0.000626075305108744,1.91175553396871e-05,5.1605022509685e-05
-0.00135358580074226,0.000625348128399141,4.01873437456701e-05,5.08382952650641e-05
-0.00132505901605243,0.000620889700704199,6.71443581102054e-05,4.79772153622927e-05
-0.00129892833822538,0.000616705454391566,9.15250021410175e-05,4.52741558282573e-05
-0.00128742464109806,0.000614035166146467,0.00010328845901687,4.32422028072119e-05
-0.00129117973394273,0.000609874761693165,9.98606481254563e-05,3.96364367116086e-05
-0.00130056150558957,0.00060046914818699,8.73258628041517e-05,3.18802378318851e-05
-0.00131535537930461,0.000588333641787388,7.32789667966411e-05,2.06505839571526e-05
-0.00132750280663388,0.000577127967901705,6.06756689525807e-05,9.35835031388718e-06
-0.00133899458283154,0.000565540824266721,4.87738719036921e-05,-5.81907686940789e-07
-0.00134871014050902,0.000553345713218791,3.74581901691553e-05,-1.18166363837342e-05
-0.00135822304238218,0.000538325341840109,2.84949566097852e-05,-2.68150683736246e-05
-0.00136302717703743,0.000521314175207268,2.29908193825173e-05,-4.34492531279424e-05
-0.0013667465070931,0.000505876571290289,1.92371197417563e-05,-5.69453251912868e-05
-0.00137133606501437,0.000498509436756935,1.37845097528761e-05,-6.4771563895125e-05
-0.00138090857153586,0.000495421915973539,4.41523511555608e-06,-6.72916436973324e-05
-0.00139276989655315,0.000497496157735357,-8.07554342473368e-06,-6.51835285238345e-05
-0.00140596636569299,0.000501441985454678,-2.06849692447109e-05,-5.95335955974532e-05
-0.00141514548153552,0.000507891208403779,-3.04410442532574e-05,-5.38010755207489e-05
-0.00142058142546305,0.000509774715290947,-3.61059088036146e-05,-5.19905266700535e-05
-0.00142287024395885,0.000507032901467854,-3.84239836090783e-05,-5.4249022701092e-05
-0.00142441996481538,0.000503158599326527,-3.91980037983439e-05,-5.70602024027423e-05
-0.00142495640665033,0.00050312283653753,-3.98984922668094e-05,-5.82939569981027e-05
-0.00142487296014267,0.000502431422616924,-4.06842697680769e-05,-5.91715375999034e-05
-0.00142552861127428,0.000500547915729756,-4.06286803633943e-05,-6.04505402458286e-05
-0.00142519482524364,0.000501072436635043,-3.88837841739901e-05,-5.985487090596e-05
-0.00142084368591569,0.000506866008452535,-3.54106567731623e-05,-5.51099378989916e-05
-0.00141524084897285,0.000515639812686432,-3.06622274491982e-05,-4.70173460057766e-05
-0.00141185530494781,0.000524866612247623,-2.52464475292577e-05,-3.72824072604385e-05
-0.00140779026793183,0.000537252458170203,-2.016600965086e-05,-2.52288604394537e-05
-0.001402080142622,0.000554680857341341,-1.64123413852609e-05,-9.3637063934862e-06
-0.00140013703108651,0.000573897395962321,-1.33607835287411e-05,8.82402881494981e-06
-0.0013967395661318,0.000589287316160638,-8.22142062212788e-06,2.55152729823931e-05
-0.00138686903636867,0.000605583227013542,1.47965725183956e-06,3.92905984927732e-05
-0.0013732672556202,0.000620126761205599,1.46725061813375e-05,5.29644785917412e-05
-0.00136203773987518,0.000636923351104459,2.6907640732901e-05,6.93830446498666e-05
-0.00135629185177635,0.000654852429321553,3.39901236480272e-05,8.63413741380274e-05
-0.00135557659599642,0.000667715112430758,3.4881072030978e-05,9.72710143371322e-05
-0.00135903366559945,0.000668275396125042,3.11852403796067e-05,9.74836216103981e-05
-0.00136686571638976,0.000661528149934301,2.49683332438873e-05,8.8877391532743e-05
-0.00137460239974275,0.000651466885296517,1.76252991686217e-05,7.74614873390099e-05
-0.00138312586445367,0.000641834774126695,1.00165259497224e-05,6.68787974714533e-05
-0.00139089831059565,0.000633168258259789,2.63557739632877e-06,5.63583205329876e-05
-0.00139878996603429,0.000623738802894282,-4.54919773475165e-06,4.51505534585992e-05
-0.00140749224469019,0.000615990198611629,-1.20771677405982e-05,3.58520576068914e-05
-0.00141675480704038,0.000612473524360271,-2.0536601455861e-05,3.11643208283813e-05
-0.00142698296469348,0.000613522566170845,-2.98825614230573e-05,2.99047771940873e-05
-0.00143678196887862,0.000615346468409685,-3.90705173351119e-05,2.96831422619109e-05
-0.00144486435919192,0.000619101561254356,-4.65420722758523e-05,3.17872119046784e-05
-0.00145215996814728,0.000627470053879622,-5.12773097063175e-05,3.87141887999689e-05
-0.00145410307968277,0.000638175048719349,-5.32332157696482e-05,4.69126384667487e-05
-0.00145361432156648,0.000641036071839098,-5.26335740468741e-05,4.69900810858949e-05
-0.00145255335882624,0.0006281018631519,-4.91599560203489e-05,3.32102255820064e-05
-0.00144752272650735,0.000606763399050438,-4.22224839750183e-05,9.50524349750509e-06
-0.00143691309910495,0.000584578548942718,-3.20398181896281e-05,-1.56871342542304e-05
-0.00142649420657719,0.000564765963838456,-2.04131543004122e-05,-3.72923758906663e-05
-0.00141890057438019,0.000549769434319105,-1.03933097221785e-05,-5.43283434511895e-05
-0.00141468056527856,0.000539839299907643,-4.50507225795282e-06,-6.65135326983037e-05
-0.00141255863979808,0.000535047086182063,-2.26626534977794e-06,-7.39449599708443e-05
-0.00141100891894155,0.000533378156028876,4.66462773002324e-07,-7.83767670583769e-05
-0.00140588291918534,0.000531494649141708,8.39351335025103e-06,-8.15456661645892e-05
-0.00139402159416804,0.000532293351429304,2.23555313842148e-05,-8.32276216821126e-05
-0.00137691506009788,0.000535941155906985,3.86411476766684e-05,-8.33257284986147e-05
-0.0013656020978452,0.000536119969851969,5.2804358629707e-05,-8.42104143001769e-05
-0.00135754354939124,0.000534653695503097,6.30057250969595e-05,-8.7809076798442e-05
-0.0013534308286566,0.000534391435050454,6.93032108807588e-05,-9.13344441863871e-05
-0.00135103472179381,0.000539016755760715,7.15074417076342e-05,-8.91991349186933e-05
-0.00135557659599642,0.000550067457560745,6.92953893305418e-05,-7.91622440776407e-05
-0.00136492260485426,0.000567925010199845,6.34942655981428e-05,-6.42585715405768e-05
-0.00137345799049485,0.000586164032588245,5.56767406835096e-05,-4.91912271038795e-05
-0.00138297089236801,0.000598812138963469,4.68444862517618e-05,-3.74018726812758e-05
-0.00139535673829059,0.000607419050182047,3.7601156967693e-05,-3.09802636491692e-05
-0.00140641936102029,0.00061187747787699,2.90396905494387e-05,-2.9758700175405e-05
-0.00141431101645893,0.000613582170819173,2.2072090468241e-05,-2.95136674895294e-05
-0.00142200001609325,0.000620508230954899,1.59991326381536e-05,-2.38901272605772e-05
-0.00143150099703675,0.00063713792783844,8.89743530622057e-06,-9.92295417256267e-06
-0.00144333848019472,0.000658488312869567,-2.64332955710013e-07,9.35683978864154e-06
-0.00145417460526077,0.000678646604934132,-1.01603999050351e-05,2.82615131204528e-05
-0.00146310338158032,0.000695037883224361,-1.75011530264961e-05,4.31474063947011e-05
-0.00146737107440061,0.000707566780302929,-1.89619781920045e-05,5.39019124099317e-05
-0.00146396168851624,0.00071883205883694,-1.39176900864099e-05,6.27845630363162e-05
-0.00145741709812981,0.000728297276991443,-5.93339994403985e-06,7.23358664570947e-05
-0.00145380505644113,0.000740742727562352,-4.78713893323836e-07,8.26746232009695e-05
-0.00145550974938332,0.00074915890390628,-2.07123777965922e-07,9.02238771785867e-05
-0.00145983704685194,0.000751388117753751,-3.05647233474305e-06,9.07328386737197e-05
-0.00146365174434493,0.000745391890131944,-5.15394438371865e-06,8.42340466323662e-05
-0.00146421202803922,0.000736570402179384,-4.12721320870893e-06,7.54730837122443e-05
-0.00146055230263187,0.000732016607047117,7.44601039047557e-07,6.88002901847579e-05
-0.00145353087505882,0.000728094621187128,9.07709953366592e-06,6.42969134802411e-05
-0.00144665249864176,0.00072275404469693,1.82250470591852e-05,5.96899636976864e-05
-0.0014416099453932,0.000717651886800044,2.34795781404697e-05,5.40488226142329e-05
-0.00144436368014596,0.000712859673074464,2.18163269393058e-05,4.79192000994749e-05
-0.00145310172159086,0.00070587400829041,1.46629110553786e-05,4.12585550753017e-05
-0.0014633179583143,0.00069675449709621,5.63990953303938e-06,3.34851128506471e-05
-0.00147176989744722,0.000689399283492522,-2.73262103995086e-06,2.5333238726294e-05
-0.001478159515748,0.00068330768843339,-8.53651576227724e-06,1.88566865091657e-05
-0.00148049601796246,0.000677931349154195,-9.49799065429867e-06,1.49857126785366e-05
-0.00147743233903839,0.000673818628419556,-5.97896819665438e-06,1.18239475181779e-05
-0.00147438058104399,0.000668001214742733,-3.17414500082343e-06,5.96330100752877e-06
-0.0014777065204207,0.000657570401285315,-6.42534427642726e-06,-4.27318790910726e-06
-0.00148761281297283,0.000642335453172651,-1.52707409714031e-05,-1.66146179031002e-05
-0.0014978886543446,0.000633096732681795,-2.58681000720563e-05,-2.60572865248862e-05
-0.00150941619333125,0.000628757514283509,-3.80591170533909e-05,-2.91208326116451e-05
-0.00152618894137078,0.000628793277072506,-5.48264747279587e-05,-2.72025011149474e-05
-0.00154575118695207,0.000629794635164418,-7.45061575110862e-05,-2.51371577506058e-05
-0.0015598536467465,0.000626635588803028,-8.91719459314219e-05,-2.63622630195852e-05
-0.00156311998147488,0.000621306933242496,-9.30858308439438e-05,-3.03334679276097e-05
-0.00155773172126601,0.000614750421926404,-8.86268686442104e-05,-3.47058458625844e-05
-0.00154902944261011,0.0006094813710142,-8.14500827599272e-05,-3.85233718599905e-05
-0.00154271134988733,0.00060343745967373,-7.37122529507884e-05,-4.22846187908732e-05
-0.00153095731323703,0.000597333943684932,-6.51811419483353e-05,-4.59799504200699e-05
-0.00152163514623851,0.000593137776442634,-5.74022881300478e-05,-4.85264098462277e-05
-0.00151678332786461,0.000590872799806166,-5.22889913234065e-05,-4.88546064085653e-05
-0.0015119315094907,0.000589704548698935,-4.83923020090341e-05,-4.64575050086623e-05
-0.00150316962618647,0.000593495404332602,-4.28164961122864e-05,-4.09892607455003e-05
-0.00149459847775689,0.000600492990046322,-3.61071119167283e-05,-3.23642829268193e-05
-0.00149059304538924,0.000607383287393051,-3.12070441273304e-05,-2.15636199052245e-05
-0.00148390540384682,0.000615930593963301,-2.70592052886519e-05,-1.08336120996967e-05
-0.0014696956556854,0.000622153319248755,-1.66186147833279e-05,-2.77457161319937e-06
-0.00144613989866614,0.000622642077365045,6.75032498334046e-06,9.36070655804726e-07
-0.00141046055617693,0.000619292296129006,4.16983722969472e-05,5.38379361301286e-07
-0.00137046583714878,0.000615096128886707,7.83725928157365e-05,-1.62579560028303e-06
-0.00134118803389001,0.000611436403479362,0.000105117641616962,-2.52015947303322e-06
-0.00132963665304402,0.000609791315185506,0.000116137533903883,-9.10467871978737e-07
-0.00132973202048135,0.000610327757020459,0.000113933873118092,1.68149630627644e-06
-0.00133624084807878,0.000609087980335234,0.000105353790508816,3.23056001503953e-06
-0.00134280928032454,0.000607097185081076,9.60360560591177e-05,4.13555975858733e-06
-0.0013485432474937,0.00060708526415141,8.87510319163579e-05,6.76315264920114e-06
-0.00135178574036275,0.000610137022145809,8.48577704571079e-05,1.19031801798241e-05
-0.00134991415440525,0.000612235105766958,8.38589688885884e-05,1.69944609441832e-05
-0.00134917505676598,0.000611472166268359,8.12806869254154e-05,1.88674259718991e-05
-0.00136021383763634,0.000607895887368672,7.08641960667687e-05,1.75298840723783e-05
-0.00137712963683186,0.000604522264273302,5.13059355554131e-05,1.60580392121397e-05
-0.00139781244980171,0.000602197682988505,2.86489762668409e-05,1.70895276228908e-05
-0.00141426333274027,0.000604105031735005,9.90169108378549e-06,2.08070617293518e-05
-0.00142704256934181,0.000608074701313657,-3.59732761738487e-06,2.63996455644353e-05
-0.00143711575490926,0.000612473524360271,-1.44609943171641e-05,3.36347753048159e-05
-0.00144360074064736,0.000618433989193081,-2.39255129324333e-05,4.17510533373439e-05
-0.00144984730779215,0.000623834170331607,-3.19136690967459e-05,4.80847207368781e-05
-0.00145878800504136,0.000622725523872705,-4.02388372811577e-05,4.97710624902513e-05
-0.00146780022786857,0.000618171728740438,-5.09196162247587e-05,4.67015521703e-05
-0.00147556075308089,0.000611555612776018,-6.16546225130015e-05,4.13195085379217e-05
-0.00148173579464768,0.000603890455001024,-6.73631298590026e-05,3.54949441459096e-05
-0.00148092517143042,0.00059576038096907,-6.67708593904107e-05,2.90438727098088e-05
-0.00147525080890958,0.000587534939499792,-6.3599707205638e-05,2.13182511258403e-05
-0.00147222289277452,0.000576734577222739,-6.03025872561535e-05,1.24115489618125e-05
-0.00146516570241247,0.000566136870750002,-5.44686641651313e-05,2.33367049859451e-06
-0.00145413884247177,0.000553143057414475,-4.33466970419512e-05,-9.03574077370992e-06
-0.00143936881061606,0.000542235406770432,-2.88984224388203e-05,-2.02336044153073e-05
-0.00142511137873598,0.000532448323514958,-1.59532168192113e-05,-2.84642654483436e-05
-0.00141664751867339,0.000527393849336734,-7.16235841690991e-06,-3.30760839261641e-05
-0.00141171225379182,0.000523614914632732,-1.627607243585e-06,-3.69506020254888e-05
-0.00140630015172363,0.000517535240503266,2.97409616067828e-06,-4.23750397008585e-05
-0.00140084036593678,0.000512576133762368,8.48480110881028e-06,-4.703796014623e-05
-0.00139441498484701,0.000513398677909295,1.52776370095181e-05,-4.66440483867895e-05
-0.00138847836187353,0.000519132645078459,2.20069167123527e-05,-4.05418343894323e-05
-0.00138332852025798,0.000528001816749681,2.7278218028198e-05,-3.21915326721275e-05
-0.00137865551582906,0.000535440476861028,3.16602313778609e-05,-2.49707610588345e-05
-0.00137594946479496,0.00054017308593828,3.60805313526993e-05,-2.06582614231691e-05
-0.00137393482768147,0.000540113481289952,3.83361207592896e-05,-2.14527954679999e-05
-0.00137844093909508,0.000532698663037936,3.47067652826491e-05,-2.91412436843161e-05
-0.00138736971541463,0.000522351296088177,2.62707371399838e-05,-4.0858313856817e-05
-0.00139501103133029,0.000514483482508867,1.96618953856161e-05,-4.92316867538792e-05
-0.00139764555678639,0.00051531794758546,1.86676051225413e-05,-4.92133286478783e-05
-0.00139840849628499,0.000523340733250423,1.8400322871622e-05,-4.26791430043617e-05
-0.00140596636569299,0.000532650979319273,1.18367165664321e-05,-3.44412815901346e-05
-0.00141937741156682,0.000541830095161801,-1.08004638860179e-07,-2.61663920240941e-05
-0.00143038042964819,0.000552976164399157,-9.59459281540647e-06,-1.67749905525929e-05
-0.00143378981553255,0.000564050708058519,-1.17293921610312e-05,-6.66173663355448e-06
-0.00143145331331809,0.00057463649360159,-8.58343535418746e-06,2.06668544150907e-06
-0.00142793663906673,0.000582838093211537,-3.52072310801577e-06,8.84218463211245e-06
-0.00142360934159811,0.000590133702166897,3.27928493525647e-06,1.49551596399074e-05
-0.00141565808151114,0.000597643887856238,1.19182461731823e-05,2.0674098339966e-05
-0.00140889891439074,0.000603759324774702,1.96516000541798e-05,2.47244553510715e-05
-0.00140719422144855,0.000607228315307398,2.37191584200309e-05,2.66852152036609e-05
-0.00140798100280648,0.000608158147821316,2.50056247987676e-05,2.70795014511715e-05
-0.00140755184933852,0.000608933008249581,2.61873756202565e-05,2.45160035515565e-05
-0.00140725382609688,0.000601661241153553,2.75595290933695e-05,1.57701644604821e-05
-0.00141098507708222,0.000587070023242833,2.68551274647643e-05,6.30725812610359e-07
-0.00141710051400068,0.000573611293650347,2.22343451595429e-05,-1.51282235273347e-05
-0.00142612465775756,0.000567686591606533,1.35787807315915e-05,-2.37133349303345e-05
-0.00144057282451229,0.00057030919613297,1.61835902641565e-06,-2.17211471964116e-05
-0.00145666607956088,0.000581765209541631,-1.22635365284557e-05,-1.17294225719224e-05
-0.00147047051611367,0.000596976315794964,-2.55242558735755e-05,9.99587672654184e-07
-0.00148252257600561,0.000608789957093594,-3.53667011640735e-05,1.15749996243109e-05
-0.00148941287335234,0.000615429914917345,-4.05578318693629e-05,1.64692515386794e-05
-0.00149157056162182,0.00061457160798142,-4.17956141035646e-05,1.47007688370972e-05
-0.00149278649644771,0.000611233747675046,-4.05677998291674e-05,9.31285005520151e-06
-0.00149167784998881,0.000609624422170187,-3.83931873798425e-05,5.91788864138305e-06
-0.00149186858486346,0.000611817873228662,-3.67674611340059e-05,7.76341804163347e-06
-0.00149186858486346,0.000618529356630406,-3.65940626932366e-05,1.22790886977535e-05
-0.00149602898931676,0.000620877779774533,-3.71835988281803e-05,1.37075290782545e-05
-0.0014960170683871,0.000617706812483478,-3.63696803593667e-05,9.53440710313605e-06
-0.00149132022209884,0.000613784826623489,-3.22432557225951e-05,3.68946257207977e-06
-0.00148735055252019,0.000613486803381848,-2.50156135192745e-05,3.0409791638052e-06
-0.00148156890163236,0.000622153319248755,-1.71098449104904e-05,1.11470940468603e-05
-0.00147459515777797,0.000639247932389255,-1.10832538936907e-05,2.56486912733318e-05
-0.0014723659439305,0.000654137173541616,-7.18402091992222e-06,4.09761723394971e-05
-0.00147055396262133,0.000666773358987174,-3.16616209304999e-06,5.26476661141369e-05
-0.00146559485588043,0.000674116651661196,3.21230075990572e-06,5.92632227522536e-05
-0.00145615347958526,0.000678288977044164,1.17962443741337e-05,6.17849465187801e-05
-0.00144959696826917,0.000677967111943192,2.03084603270369e-05,6.18344405665866e-05
-0.00144561537776085,0.000676810781765627,2.62752027567272e-05,6.03747437433322e-05
-0.0014438630011,0.000675511400432074,2.81385023879496e-05,5.74601543076736e-05
-0.00144677170793842,0.000671172182033788,2.55497511195409e-05,5.31921850098224e-05
-0.00145361432156648,0.000667047540369483,2.00057096079032e-05,4.86981012730157e-05
-0.00146048077705388,0.000663661996344447,1.46596235027482e-05,4.54005499292257e-05
-0.0014633179583143,0.000662720242900863,1.18678203387733e-05,4.3061919681675e-05
-0.00146443852570287,0.000658798257040874,1.10461896949501e-05,3.94295101873235e-05
-0.00146646508374602,0.000651586094593173,1.04003433843163e-05,3.25120759986051e-05
-0.00146673926512833,0.000642919578726266,1.03085528721348e-05,2.25792816638104e-05
-0.00146583327447374,0.000630962886271649,1.26809460390859e-05,1.12178365019839e-05
-0.00146073111657686,0.000619566477511315,1.6720500607953e-05,-7.51685178518549e-07
-0.00146080264215485,0.000606906450206426,1.80688394495521e-05,-1.3209771814891e-05
-0.00146574982796608,0.000595486199586761,1.38074024177741e-05,-2.5241548622517e-05
-0.00147339114388175,0.000584769283817368,6.57265385211614e-06,-3.5493027101134e-05
-0.00147743233903839,0.000576591526066752,1.86190696548167e-06,-4.41772176047298e-05
-0.00147793301808435,0.000567698512536199,2.20697273128747e-06,-5.30469543471972e-05
-0.00147622832514216,0.000558352503678352,5.47831874693951e-06,-6.26707555232718e-05
-0.00147248515322716,0.000549531015725792,8.0290942717304e-06,-7.11313722272148e-05
-0.00147224673463385,0.000544464620617903,7.85338712803035e-06,-7.64948378514504e-05
-0.00147756346926471,0.000542140039333107,5.09420732900015e-06,-7.95464436548458e-05
-0.00148017415286148,0.000538229974402784,1.04089661278611e-06,-8.27960991731602e-05
-0.00148433455731479,0.000533914597863829,-3.07579290712188e-06,-8.72530515267992e-05
-0.00148895987802505,0.000530457528260799,-6.88249483926168e-06,-9.11144421490182e-05
-0.0014925838406434,0.00053135159798572,-1.0412412877939e-05,-9.10822832633745e-05
-0.00149461039868655,0.000537371667466859,-1.29379681223155e-05,-8.4263638035996e-05
-0.0014959097800201,0.000550973448215332,-1.33918481573549e-05,-7.01596092725748e-05
-0.00149422892893725,0.000570941005405247,-1.24300852799126e-05,-5.27400985970645e-05
-0.00149517068238084,0.000583004986226856,-1.26020636493224e-05,-3.96313092766505e-05
-0.00149745950087664,0.000585901772135602,-1.53139944944716e-05,-3.60574326950789e-05
-0.00150139340766629,0.000584936176832686,-1.88609831193211e-05,-3.84419612989976e-05
-0.00150289544480416,0.000588154827842404,-2.08980559035984e-05,-3.61392532813114e-05
-0.00150450477030902,0.000602221524847837,-2.178431055531e-05,-2.12225937261525e-05
-0.00150610217488421,0.000628149546870562,-2.37327186762026e-05,4.31904418781926e-06
-0.00150933274682359,0.00065633062460009,-2.72688100440112e-05,3.16995054378875e-05
-0.00151308783966826,0.000679111521191092,-3.0149712680301e-05,5.36675614711956e-05
-0.00151138314672608,0.000693666976312815,-2.94098743845927e-05,6.82925110187604e-05
-0.0015057922307129,0.000701677841048112,-2.33369910188597e-05,7.67359818529871e-05
-0.0014952541288885,0.000707137626834966,-1.24808321700482e-05,8.05542524570417e-05
-0.00148248681321662,0.000707948250052229,-4.31211624846002e-07,8.09711304613318e-05
-0.00147466668335597,0.000705242199018133,7.58317056742599e-06,7.82061214831374e-05
-0.00147340306481141,0.000697624724961801,9.5032438272813e-06,7.11955842753265e-05
-0.00147267588810181,0.000688445609119273,9.47861447686909e-06,5.9947160776608e-05
-0.0014685870092265,0.000677061121288605,1.33983286801318e-05,4.81072579825738e-05
-0.00146176823745777,0.000668180028687717,2.12529457155471e-05,4.05981819773345e-05
-0.00145536669822733,0.000667107145017811,2.66905954714725e-05,3.79670252234823e-05
-0.00145735749348149,0.000665164033482315,2.47958625240328e-05,3.54130843958614e-05
-0.00146509417683447,0.000658404866361908,1.75735822474432e-05,2.85172976024337e-05
-0.00147179373930655,0.000647223034335556,1.05721950681931e-05,1.78142215735043e-05
-0.00147479781358229,0.00063694719296379,6.85776921172626e-06,6.45558279974646e-06
-0.00147669324139912,0.000626397170209716,6.4333066371145e-06,-4.24164643925382e-06
-0.00147248515322716,0.00061601404047096,9.37225687845147e-06,-1.47023811544259e-05
-0.0014655710140211,0.000606465375808798,1.63151810679213e-05,-2.43231938947105e-05
-0.00145621308423359,0.000599277055220428,2.61503130184646e-05,-3.15975967883986e-05
-0.00144724854512504,0.000594472920565183,3.55232589619001e-05,-3.64718360670252e-05
-0.00143951186177205,0.00059105161375115,4.12357720123789e-05,-4.02672693312364e-05
-0.00144021519662232,0.000587952172038089,4.23308603679698e-05,-4.32256223270165e-05
-0.00144214638722815,0.000586044823291589,4.00832391662495e-05,-4.37711969555066e-05
-0.00144439944293496,0.000591182743977472,3.68320590395293e-05,-4.03031298661986e-05
-0.00144689091723507,0.000598192250620857,3.44683125936133e-05,-3.27026187451874e-05
-0.00144872674040358,0.000606548822316457,3.31246232900118e-05,-2.24645633479595e-05
-0.0014500022798778,0.000618016756654784,3.14103785405021e-05,-1.23064299044367e-05
-0.0014526010425449,0.000624656714478535,2.8221092471583e-05,-4.80934693197517e-06
-0.00145668992142021,0.000628745593353843,2.36757251242725e-05,-1.09385817921959e-07
-0.00146367558620427,0.000632178821097542,1.80596080137591e-05,4.28700145300025e-06
-0.00146869429759349,0.000637888946407374,1.11603766725497e-05,1.01065903590536e-05
-0.0014765263483838,0.000643050708952588,3.34795244803215e-06,1.58796705362354e-05
-0.00148442992475211,0.000645303764659391,-4.29302711708075e-06,1.95163353420923e-05
-0.00149180898021513,0.000647187271546559,-1.21624230957549e-05,2.17359994832936e-05
-0.00150178679834526,0.000648641624965765,-2.27240428575821e-05,2.43152035842058e-05
-0.00151541242095306,0.000649440327253361,-3.67908359010038e-05,2.61571287321518e-05
-0.00152915725285752,0.000647127666898231,-5.05430218783132e-05,2.46779266364121e-05
-0.00153689393621051,0.000642442741539642,-5.8879417575339e-05,2.09855518515147e-05
-0.00153867015473069,0.00063942674633424,-6.10809727688823e-05,1.99110742302267e-05
-0.00153768071756844,0.00064280036942961,-6.04793198214497e-05,2.37184375912518e-05
-0.00153512963862,0.000646734276219265,-5.90988239538171e-05,2.86899615994506e-05
-0.00153309115964718,0.000645029583277081,-5.6117264004758e-05,2.93818965720566e-05
-0.00152741679712634,0.000638890304499287,-5.19491721874976e-05,2.39550152764228e-05
-0.00152425775076495,0.000627863444558587,-4.97399261079187e-05,1.41123234771996e-05
-0.00152529487164586,0.000614416635895767,-5.06284152362929e-05,2.31682449652423e-06
-0.00152548560652051,0.000601005590021943,-5.07082543743342e-05,-9.11742314934029e-06
-0.00151839265336947,0.000591146981188475,-4.58451458867378e-05,-1.81870181066019e-05
-0.00151041755142317,0.00058299306529719,-3.754678524647e-05,-2.44680675675201e-05
-0.00150291928666349,0.000576996837675383,-3.06527642106568e-05,-2.9088550735317e-05
-0.00149824628223457,0.000571846996059835,-2.62215057844337e-05,-3.23852000189147e-05
-0.00149093875234954,0.000569510493845373,-2.02130538668693e-05,-3.32703099294508e-05
-0.00147898205989492,0.000569629703142029,-9.24757473415375e-06,-3.18743073748509e-05
-0.00146521338613113,0.000569283996181726,5.37518747887274e-06,-3.0402771811187e-05
-0.00144953736362084,0.000568246875300817,1.98306436326915e-05,-2.96428841761012e-05
-0.00143673428515996,0.000569856200805676,3.10980184100863e-05,-2.69767062334725e-05
-0.00143073805753815,0.000574922595913565,3.73977249166259e-05,-2.01827920705381e-05
-0.00142962941107925,0.000582301651376584,3.83330023699078e-05,-1.11666600345427e-05
-0.00143059500638217,0.000589120423145319,3.63300110854611e-05,-3.24327491572837e-06
-0.0014302373784922,0.000593912636870899,3.55161240553922e-05,3.50073136166644e-06
-0.00142921217854096,0.000600612199342978,3.69502930047567e-05,1.10880087302137e-05
-0.0014290929692443,0.000607776678072016,3.68241772568644e-05,1.94042299048075e-05
-0.00143282422022964,0.000612664259234921,3.1846459349579e-05,2.6669415572812e-05
-0.00143949994084239,0.000619518793792653,2.47760401796469e-05,3.33640517824475e-05
-0.0014431358243904,0.000626039542319747,2.14423385380836e-05,4.17777740864909e-05
-0.00144101389890992,0.000634717979116319,2.30975209432133e-05,5.13923400626789e-05
-0.00143797406184519,0.000640428104426152,2.53098875549746e-05,5.8268132802633e-05
-0.00143884428971078,0.000641369857869736,2.46534002847524e-05,5.99208374292973e-05
-0.00144029864312998,0.00063885454171029,2.28040568358977e-05,5.77616841943863e-05
-0.00144087084775393,0.000632584132706173,2.25559868784902e-05,5.35907808689425e-05
-0.00143994101524001,0.000626134909757072,2.30023556615985e-05,4.66293308050001e-05
-0.0014412642384329,0.000614714659137407,2.12339226634576e-05,3.57631549713889e-05
-0.00144668826143076,0.000599932706352037,1.67765936222452e-05,2.23126205141765e-05
-0.00145179041932764,0.000586354767462895,1.16175210377451e-05,8.47263224819966e-06
-0.00145576008890629,0.00057213309837181,7.07890094796703e-06,-5.29460134439986e-06
-0.0014598489677816,0.000558364424608017,3.31953246194793e-06,-1.92739678663239e-05
-0.00146381863736025,0.000544536146195897,1.11503185430152e-06,-3.22443307744477e-05
-0.00146224507464439,0.000534963639674404,1.30535252469419e-06,-4.23927524232354e-05
-0.00146151789793479,0.000527811081875031,2.56528437018887e-06,-4.98458209522043e-05
-0.00146377095364159,0.000521016151965627,2.27837147301488e-06,-5.64179283130635e-05
-0.00146555909309143,0.000514972240625157,-3.74307570535942e-08,-6.29983377157708e-05
-0.00146812209296954,0.000510168105969912,-2.34446545258754e-06,-6.8476717464389e-05
-0.00147073277656631,0.000507700473529129,-3.41598058100082e-06,-7.10111331235804e-05
-0.00147244939043816,0.000510537654789546,-4.25816756559268e-06,-6.92857307289618e-05
-0.00147407063687269,0.000517630607940591,-5.62977816199014e-06,-6.29342297015548e-05
-0.00147563227865888,0.000527966053960684,-6.57104322412832e-06,-5.29929425815826e-05
-0.00147790917622502,0.000540101560360286,-6.57442849271471e-06,-4.18772954521861e-05
-0.0014784694599193,0.000551867517940254,-7.03011112977526e-06,-3.19701199958068e-05
-0.00148147353419504,0.000559771094308561,-8.88725849771462e-06,-2.42918272308539e-05
-0.00148445376661144,0.000566124949820337,-1.07010399282201e-05,-1.9039616948168e-05
-0.00148659953395125,0.000570178065906648,-1.09717587094248e-05,-1.6463523541919e-05
-0.00148751744553551,0.00057349208435369,-1.10810158946746e-05,-1.56903019908164e-05
-0.00149121293373185,0.00057550672146718,-1.37429859248752e-05,-1.33004321521757e-05
-0.00149877080313985,0.000584459339646062,-1.927129018054e-05,-5.55199228027774e-06
-0.00150598296558755,0.000600981748162612,-2.53283691369481e-05,6.91887794728309e-06
-0.00151255139783331,0.000612032449962643,-2.9873841805794e-05,1.81990497180785e-05
-0.0015156746814057,0.000617277659015516,-3.24597983952348e-05,2.25440016796248e-05
-0.00151829728593214,0.000617849863639466,-3.28654504409068e-05,2.02845498237846e-05
-0.0015180350254795,0.0006170750032112,-3.04208189833343e-05,1.71522605080396e-05
-0.00151368388615155,0.000618207491529434,-2.5075468925831e-05,1.80752232044847e-05
-0.00150783070968573,0.000624883212142182,-1.78726195749197e-05,2.28563595224378e-05
-0.00150258550063285,0.000632333793183195,-1.01240974813595e-05,2.77770641467337e-05
-0.00149731644972065,0.000636041202309203,-2.94316773933691e-06,2.97787870903907e-05
-0.00149269112901039,0.000635826625575222,2.81013067457537e-06,2.83918481582856e-05
-0.00148968705473465,0.000634181537281366,7.3824507740454e-06,2.50199413032053e-05
-0.00148733863159052,0.000632917918736811,1.24670334404389e-05,2.17539210950616e-05
-0.00148243912949795,0.000633394755923435,1.90245922493915e-05,2.00903967628859e-05
-0.00147731312974174,0.000633692779165076,2.50656501712933e-05,1.91488565723761e-05
-0.00147721776230441,0.00063098672813098,2.77047606778361e-05,1.54128476249838e-05
-0.00147908934826191,0.000623977221487595,2.7511545266004e-05,6.08317109070722e-06
-0.00148054370168112,0.00061331991036653,2.81916315800342e-05,-6.82183145677294e-06
-0.00147869595758295,0.000603592431759383,3.08462520914497e-05,-1.71635581651908e-05
-0.00148086556678209,0.000601136720248265,3.11957751848278e-05,-2.023484613095e-05
-0.00148867377571307,0.000607955492017,2.50169054669721e-05,-1.66562933527396e-05
-0.00150027284027772,0.000615227259113029,1.48183660671887e-05,-1.05347228538556e-05
-0.00150920161659727,0.000620400942587909,7.92346732200275e-06,-5.48696472738396e-06
-0.00151022681654852,0.000623905695909601,7.86770571004518e-06,-3.20986398830286e-06
-0.00150959500727624,0.000626373328350385,1.05390512600565e-05,-3.58547263398685e-06
-0.00151182422112371,0.000626170672546069,1.00074795063648e-05,-3.92020603354134e-06
-0.00151677140693494,0.000630903281623321,5.97805307064262e-06,3.46583942364774e-07
-0.0015206337881466,0.000642812290359276,3.39723123262159e-06,1.11171377402332e-05
-0.0015203238439753,0.000657808819878627,5.7480253690281e-06,2.40918189246516e-05
-0.00151565083954637,0.000666296521800549,1.10704822930659e-05,3.2397378842684e-05
-0.00151351699313623,0.00066746477290778,1.47274076072729e-05,3.38246144084678e-05
-0.00151448258843914,0.000667285958962796,1.42634476056658e-05,3.19995306428676e-05
-0.00151944169518004,0.000666904489213496,1.09616366660068e-05,3.05616648243622e-05
-0.00152320870895438,0.00066583160554359,8.13246634513437e-06,2.97252386069916e-05
-0.00152304181593906,0.000665581266020612,8.69571890223392e-06,2.94609762183189e-05
-0.00151964435098436,0.000669074098412639,1.29754738088877e-05,3.174140437702e-05
-0.00151588925813969,0.000674164335379859,1.75389188206211e-05,3.64371984228489e-05
-0.00151704558831725,0.000675487558572743,1.73431547403007e-05,3.81863772747701e-05
-0.00152342328568836,0.000669753591403579,1.06934242298784e-05,3.20707525380227e-05
-0.00153346070846681,0.000659203568649505,1.3621983853656e-06,2.13492574353585e-05
-0.0015411616290308,0.000652945080575054,-5.84444182386041e-06,1.48569894188097e-05
-0.00154631147064635,0.0006543159874866,-1.07764582195307e-05,1.61938599439621e-05
-0.00155247459128348,0.000656914750153705,-1.69478355452329e-05,1.95676978564253e-05
-0.00156043777230011,0.000655663052538815,-2.5376165339525e-05,1.77536887821704e-05
-0.00156840095331675,0.000648307838935127,-3.24805643044012e-05,1.04357855719019e-05
-0.00157024869741492,0.000639605560279224,-3.49333311871251e-05,2.22827743563056e-06
-0.00156883010678471,0.000632405318761189,-3.39392741850693e-05,-4.39057530611239e-06
-0.0015677929859038,0.000626814402748013,-3.31917567623639e-05,-1.04472686693829e-05
-0.00156881818585504,0.000620162523994596,-3.46614095775181e-05,-1.64221718585427e-05
-0.00157238254382506,0.000615394152128348,-3.80681872388573e-05,-2.09313121757314e-05
-0.00157527932973381,0.000612330473204283,-4.26306318137956e-05,-2.36537115883077e-05
-0.00157917747373447,0.000609076059405569,-4.72078412464496e-05,-2.64072040397945e-05
-0.00158255109682984,0.000604939496811598,-4.98746576179211e-05,-3.03974196819778e-05
-0.00157940397139811,0.000600314176101337,-4.92642906063387e-05,-3.47079192984039e-05
-0.00157537469717113,0.000596118008859039,-4.56168682222042e-05,-3.84855188047245e-05
-0.00156884202771437,0.000590789353298506,-3.94379355817101e-05,-4.25495353692397e-05
-0.00155810127008565,0.000586903130227514,-3.0734792696313e-05,-4.74830524196106e-05
-0.00154794463801054,0.000581848656049291,-2.1034303190265e-05,-5.16593500433375e-05
-0.00153950461980728,0.000579774414287473,-1.39212496396319e-05,-5.25728496368098e-05
-0.00153540382000231,0.000583124195523512,-1.09638291932021e-05,-4.91352283625698e-05
-0.00153141030856432,0.000591325795133459,-8.89227787713729e-06,-4.17644396688138e-05
-0.0015263915971751,0.000599646604040063,-4.03929362337319e-06,-3.16440263621301e-05
-0.00151867875568144,0.000610041654708484,1.73084585429712e-06,-2.11251526742569e-05
-0.00151531705351574,0.000617933310147125,3.29326754195817e-06,-1.31978225219502e-05
-0.00151774892316752,0.000622391737842067,-1.26173712252227e-07,-8.49654120507644e-06
-0.00152044305327195,0.000626885928326006,-3.6568792929379e-06,-3.91165047346206e-06
-0.00151774892316752,0.000632393397831523,-3.30350758864922e-06,3.44385736245503e-06
-0.00151256331876298,0.000641679802041042,3.91511384984999e-07,1.14208018881363e-05
-0.00150599488651722,0.00064470771817611,6.20465459393839e-06,1.45638419609297e-05
-0.00149519452424017,0.000638985671936612,1.54136396378724e-05,1.08173191337731e-05
-0.00148005494356483,0.000633168258259789,2.85621205788323e-05,4.10831349372675e-06
-0.00146510609776414,0.000628685988705515,4.21916765850598e-05,-2.72435197938288e-07
-0.00145455607501007,0.000627553500387281,5.19243385829552e-05,-3.95436813687811e-07
-0.00144752272650735,0.000631606616473592,5.7035409721395e-05,3.20291197148041e-06
-0.00144343384763204,0.0006376028440954,5.94302419753006e-05,1.03078917513518e-05
-0.00144264706627411,0.000647866764537499,5.97314466358423e-05,2.02236557739969e-05
-0.00144287356393776,0.000656998196661365,5.72190908236351e-05,2.95006922086547e-05
-0.00144665249864176,0.000660395661616067,5.27078865651731e-05,3.34663349954773e-05
-0.00144963273105816,0.000656235257162765,4.86226341598394e-05,3.03908622139939e-05
-0.00145010956824479,0.000649642983057677,4.61256782366647e-05,2.24504742586749e-05
-0.00145165928910132,0.000638508834749987,4.40791761489768e-05,1.25552610958795e-05
-0.00145356663784782,0.000627291239934637,4.09294936567864e-05,2.18521658043647e-06
-0.00145723828418483,0.000618207491529434,3.61308396229165e-05,-7.1697761148409e-06
-0.00146235236301138,0.000612688101094252,2.97007447538184e-05,-1.27793170723414e-05
-0.00146965989289641,0.000610959566292737,2.17191000927307e-05,-1.30644930209563e-05
-0.00147798070180301,0.000613081491773217,1.25292940881005e-05,-1.05621959729117e-05
-0.00148681411068524,0.000613820589412486,2.70775595423882e-06,-1.03086378320573e-05
-0.00149573096607512,0.000608599222218944,-7.05645268205376e-06,-1.44525301900802e-05
-0.00150327691455346,0.000602114236480846,-1.55239546746392e-05,-1.95476968677221e-05
-0.00150852212360633,0.000601899659746865,-2.0957531659363e-05,-2.01557988339204e-05
-0.00150947579797958,0.000607395208322716,-2.25960748177069e-05,-1.45692073335232e-05
-0.00150747308179576,0.000613641775467502,-2.18091287196443e-05,-5.86501722488493e-06
-0.00150661477485983,0.000621688402991796,-2.10176004822786e-05,2.46261249166251e-06
-0.00150741347714743,0.000630390681647699,-2.17312493630227e-05,1.02285119043589e-05
-0.00150883206777764,0.000636434592988169,-2.41688926560618e-05,1.88812147445499e-05
-0.00151233682109933,0.000643396415912891,-2.81443215999383e-05,2.72703739293116e-05
-0.00151770123944886,0.00064789060639683,-3.33233757859441e-05,3.12977632735054e-05
-0.00152332791825103,0.000644397774004804,-3.87880670728881e-05,2.85016637218404e-05
-0.00152658233204975,0.000634658374467991,-4.30893019795179e-05,2.15623532554477e-05
-0.00152896651798287,0.000627732314332265,-4.48153394634505e-05,1.57865399849163e-05
-0.00152653464833108,0.000626623667873363,-4.30911608280411e-05,1.35925708244227e-05
-0.00152270802990842,0.000623261965707658,-3.80729710990421e-05,1.30461228969403e-05
-0.00151501903027409,0.000619578398440981,-3.11136828914193e-05,1.19348554977594e-05
-0.00150722274227278,0.000619745291456299,-2.37843024493963e-05,1.12594813420838e-05
-0.00150190600764191,0.000619316137988337,-1.6692874102914e-05,1.30431381526052e-05
-0.00149478921263154,0.000620269812361587,-1.0115177103787e-05,1.58513082520838e-05
-0.00148996123611696,0.000618279017107428,-5.42477461439105e-06,1.52420807185242e-05
-0.00148917445475903,0.000610780752347753,-4.00666249488013e-06,9.41586944354908e-06
-0.00149086722677155,0.000602614915526802,-4.38020688688649e-06,2.25313890215525e-06
-0.00148817309666712,0.000597250497177273,-2.61075220627169e-06,-1.03236098671791e-06
-0.00148327359457455,0.000596094166999708,3.15189778619905e-06,-2.11140649512687e-08
-0.00147734889253073,0.000595939194914054,1.02679343155197e-05,1.09815006088233e-06
-0.0014724374695085,0.000592577492748349,1.50027081093578e-05,-9.59861165791916e-07
-0.00147166260908023,0.000585711037260952,1.64964193587603e-05,-5.56596548249286e-06
-0.0014728189392578,0.00057847503295392,1.59000840414827e-05,-1.0430303640725e-05
-0.00147590646004119,0.000574004684329312,1.39033051910395e-05,-1.42058092249042e-05
-0.00147835025062264,0.000569641624071695,1.17326634989138e-05,-1.61342385113856e-05
-0.00147759923205371,0.000568795238065436,1.27040139118475e-05,-1.54491355102932e-05
-0.00147293814855445,0.000569713149649688,1.90651145000984e-05,-1.24872118428951e-05
-0.00146478423266317,0.000571382079802875,2.76632829614775e-05,-8.76649115259381e-06
-0.00146030196310889,0.000574219261063293,3.21406618705691e-05,-4.8502584243956e-06
-0.00146393784665691,0.000577759777173983,2.99203436459215e-05,1.95486961741316e-07
-0.00147069701377732,0.000580465828208079,2.43141256502856e-05,6.17389421755996e-06
-0.00147577532981487,0.000584638153591046,1.92484021018755e-05,1.07924111928574e-05
-0.00148129472025005,0.000585722958190617,1.48193129743763e-05,1.31566932315626e-05
-0.00148766049669149,0.000586438213970555,9.30239317516285e-06,1.61117749201352e-05
-0.00149499186843585,0.000590848957946834,3.01667447425078e-06,2.23046442253224e-05
-0.00150061854723802,0.000596451794889676,-1.84918645916371e-06,2.90877643811383e-05
-0.00150308617967881,0.000597453152981588,-3.95529554850963e-06,3.03548122267964e-05
-0.00150409945870039,0.00058789256738976,-3.75595253612311e-06,2.33623926418745e-05
-0.00150439748194203,0.000574421916867609,-2.56348680512629e-06,1.15072022109138e-05
-0.00150352725407644,0.000564026866199187,-1.7912060132955e-06,4.40088586950885e-07
-0.0015050292912143,0.000555157694527965,-2.27765966965456e-06,-6.57614324984084e-06
-0.00150749692365509,0.000550377401732051,-3.28792580898052e-06,-9.61058904049405e-06
-0.00150756844923308,0.000550222429646398,-2.85610849512443e-06,-1.05582318740239e-05
-0.00150592336093923,0.00054795745300993,-6.2763784195451e-08,-1.12483082918266e-05
-0.00150256165877352,0.000546693834465375,3.52316412814127e-06,-1.19929393353285e-05
-0.00150227555646155,0.000546932253058687,5.32901384933894e-06,-1.2126965660726e-05
-0.00150455245402768,0.000545668634514131,4.15390081899622e-06,-1.24836211832824e-05
-0.00150864133290299,0.00054229501141876,6.52046654246125e-07,-1.56293260036704e-05
-0.00151308783966826,0.000536882909350569,-3.61293263287467e-06,-2.18075844086059e-05
-0.00151849994173646,0.000532364877007298,-6.84748892229985e-06,-2.64049465456797e-05
-0.00152002582073366,0.000534188779246138,-7.67970661428941e-06,-2.43658875900605e-05
-0.0015187979649781,0.000543165239284351,-6.30713130290527e-06,-1.61758451159263e-05
-0.00151847609987712,0.000553941759702072,-4.68185538080728e-06,-6.63172106905284e-06
-0.00151981124399967,0.000562119517452688,-4.62613598807325e-06,1.14633637929734e-06
-0.00152151593694186,0.000568723712487442,-5.80143367551177e-06,6.90783030230959e-06
-0.00152305373686872,0.000572741065784756,-6.10768997410275e-06,9.56233620009578e-06
-0.00152118215091122,0.00057213309837181,-4.07433800785349e-06,7.24189914698385e-06
-0.00151957282540636,0.000567543540450546,-6.19889700220843e-07,1.84509416369567e-06
-0.00151873836032977,0.000567364726505561,1.36952946636365e-06,-9.65195124453782e-07
-0.00152113446719256,0.000570821796108591,-7.90477089297158e-07,1.87183902823048e-06
-0.00152820357848427,0.00057942870732717,-7.22272902969525e-06,7.76590976489135e-06
-0.00153839597334838,0.000587272679047148,-1.50393179499505e-05,1.30758086830317e-05
-0.00154470214514149,0.000593078171794305,-2.08424832378902e-05,1.70404834580898e-05
-0.0015480280845182,0.000597310101825601,-2.39625757456982e-05,1.94065060357032e-05
-0.00155209312153418,0.000599134004064441,-2.66036048968836e-05,1.81635135584831e-05
-0.00155793437707033,0.000597596204137576,-3.05965713623701e-05,1.25782507917917e-05
-0.00156282195823323,0.000591528450937775,-3.49899275595021e-05,5.44271836636575e-06
-0.00156570682321231,0.000587928330178757,-3.74222815050435e-05,-7.43555720273205e-07
-0.00156660089293724,0.000586485897689217,-3.68580449119011e-05,-7.3762487570223e-06
-0.00156570682321231,0.000579643284061151,-3.39569774594028e-05,-1.66496071860623e-05
-0.00156120071179871,0.000571680103044516,-2.95518862633417e-05,-2.72208627549962e-05
-0.00155715951664206,0.000565755401000702,-2.42018067228129e-05,-3.61281446339622e-05
-0.00155296334939977,0.000564217601073837,-1.89715676047045e-05,-4.31130148150631e-05
-0.00155098447507527,0.000560295615213848,-1.49774732750213e-05,-4.98473761571027e-05
-0.00154771814034689,0.000556421313072521,-1.15126085520259e-05,-5.64599481390356e-05
-0.00154275903360599,0.000554454359677694,-5.76595365630196e-06,-6.20138563163435e-05
-0.00153439054098073,0.00055506232709064,4.40450042452466e-06,-6.7002800166595e-05
-0.00152273187176775,0.000553178820203472,1.75848897895564e-05,-7.1871071545735e-05
-0.00151094207232845,0.000553965601561403,2.95198711828569e-05,-7.37786189430878e-05
-0.00150434979822336,0.000563788447605875,3.69058658552835e-05,-6.81447909762355e-05
-0.00150381335638841,0.000583446060624484,4.00047359716193e-05,-5.34642617105727e-05
-0.00150287160294483,0.000608766115234263,4.14015511414307e-05,-3.25024711005794e-05
-0.00150134572394763,0.000632298030394198,4.29987928961171e-05,-9.53017766971007e-06
-0.00150139340766629,0.000659036675634186,4.50661890098487e-05,1.13448569951384e-05
-0.00150005826354374,0.000679206888628417,4.77545580060517e-05,2.64387237534276e-05
-0.0014960170683871,0.000689601939296838,5.19569776698645e-05,3.44562877483315e-05
-0.00149093875234954,0.000695085566943024,5.78897658635125e-05,3.80216771000838e-05
-0.00148726710601253,0.000702893775874005,6.37654924129252e-05,4.05920514799911e-05
-0.00148406037593248,0.000709748310431737,6.69811664445134e-05,4.21080898023401e-05
-0.00148562201771867,0.000708103222137882,6.62966705081818e-05,4.00507869222891e-05
-0.00149126061745051,0.000704956096706158,6.21053799762519e-05,3.39945452319792e-05
-0.00149875888221019,0.000702774566577349,5.52093507102559e-05,2.61607412369815e-05
-0.00150816449571636,0.00069741014822782,4.65255382243117e-05,1.80906141046003e-05
-0.00151826152314314,0.0006904125625141,3.74841893740853e-05,1.01954599992748e-05
-0.00152729758782968,0.000688278716103954,2.8958453326063e-05,4.51306674500178e-06
-0.00153746614083446,0.000691819232214643,1.95789422960541e-05,4.2788057815686e-06
-0.00155125865645758,0.000699377101622647,6.77833457521004e-06,9.97840483414948e-06
-0.00156785259055213,0.000709724468572406,-9.7496982416805e-06,1.86892936545468e-05
-0.00158579358969889,0.000720894379669093,-2.69469330147634e-05,2.78171868051813e-05
-0.00160146961220918,0.000732910676772039,-4.15676172149564e-05,3.65725214010993e-05
-0.00161273489074319,0.000740933462437001,-5.31146724463987e-05,4.35419060991479e-05
-0.00162268886701398,0.000745189234327628,-6.23405303500196e-05,4.66087463245371e-05
-0.00162884006672144,0.000746619745887503,-6.80546034579397e-05,4.65038423734262e-05
-0.00162866125277646,0.00074858669928233,-6.76478029840248e-05,4.67485309284918e-05
-0.00162225971354602,0.000751125857301107,-6.10084482561989e-05,4.81211129039663e-05
-0.00161362896046811,0.000749492689936917,-5.22481410385506e-05,4.65012996632115e-05
-0.00160782346772095,0.000742483183293532,-4.65186913292389e-05,3.86933397086321e-05
-0.00160754928633864,0.000732588811671067,-4.55622658703039e-05,2.75024489449336e-05
-0.00160835990955591,0.000722992463290242,-4.68057291618392e-05,1.81313544715322e-05
-0.00160726318402667,0.000716602844989469,-4.63089451685766e-05,1.19943876062106e-05
-0.00160384187721264,0.000712013287068205,-4.20701345980584e-05,7.44740784744716e-06
-0.00159635553338263,0.000709581417416419,-3.48599368232152e-05,4.67910022904544e-06
-0.00158725986404776,0.000709664863924078,-2.6844437372752e-05,5.75418122896833e-06
-0.00158039340856036,0.000713288826542427,-2.00213983929341e-05,1.02712952637348e-05
-0.00157673368315301,0.000717318100769406,-1.56478082210444e-05,1.46482574301616e-05
-0.00157336006005764,0.000717377705417735,-1.41590718294219e-05,1.62290055953549e-05
-0.00157432565536056,0.000715887589209532,-1.49686281870927e-05,1.54152829422613e-05
-0.00157539853903046,0.000712049049857202,-1.67191492056374e-05,1.32806927515746e-05
-0.001576948259887,0.000706756157085666,-1.8416380689062e-05,9.64899227545522e-06
-0.00157750854358128,0.000699973148105928,-2.01123944691296e-05,4.45919414359751e-06
-0.00157817611564255,0.000692856353095552,-2.18102761580625e-05,-1.0758905246353e-06
-0.00157871255747751,0.000686109106904811,-2.21502261891902e-05,-5.9569935980646e-06
-0.00157494554370317,0.000678038637521186,-1.95690542326966e-05,-1.07343614870187e-05
-0.00156902084165936,0.00067130331226011,-1.48982718918601e-05,-1.63545070324825e-05
-0.00156447896745676,0.000662899056845847,-1.10900125664073e-05,-2.26526316517629e-05
-0.00156271466986624,0.000652909317786057,-9.24918616782517e-06,-2.87804366307993e-05
-0.00155761251196936,0.000645566025112034,-6.24584332305658e-06,-3.43070933166793e-05
-0.00154819497753352,0.000638139285930352,1.9072397405133e-06,-3.91883163600943e-05
-0.00153617868043057,0.000630807914185996,1.47057437375817e-05,-4.32448019889041e-05
-0.00152149209508253,0.000625193156313488,2.7073494830576e-05,-4.62129580890749e-05
-0.00151181230019404,0.000620174444924262,3.5120751342725e-05,-4.79373593496028e-05
-0.00150654324928184,0.000616669691602569,4.05748467355711e-05,-4.83631018649946e-05
-0.00149799594271159,0.000614488161473761,4.84485881843202e-05,-4.77812257892383e-05
-0.00148242720856829,0.00061206821275164,6.09721219305278e-05,-4.68441100751153e-05
-0.00146833666970352,0.000609529054732862,7.48883268458312e-05,-4.54403063316365e-05
-0.00145888337247869,0.000610280073301796,8.46746045123209e-05,-4.17602202749558e-05
-0.00145300635415353,0.000615644491651326,8.7586245373571e-05,-3.38037850429157e-05
-0.00145443686571341,0.000622856654099027,8.51548079677535e-05,-2.20516333629434e-05
-0.00145901450270501,0.000631964244363561,8.02835010846658e-05,-9.43214728137851e-06
-0.00146466502336651,0.000640285053270164,7.38419444275223e-05,1.60343421862218e-06
-0.00147162684629123,0.000645720997197687,6.46297087650069e-05,1.06007621077317e-05
-0.00148319014806689,0.000648510494739443,5.21108331041157e-05,1.74539531540967e-05
-0.00149713763577566,0.000648820438910749,3.79029042476897e-05,2.13000347056788e-05
-0.00151001223981453,0.0006467223552896,2.40381182478417e-05,2.2435605532058e-05
-0.00152106294161456,0.000645160713503403,1.07702583560104e-05,2.37261923227952e-05
-0.00153385409914578,0.000644695797246444,-2.65560237374489e-06,2.79311703295673e-05
-0.00154663333574732,0.000647294559913549,-1.54757335408511e-05,3.40363477521109e-05
-0.00155475148884961,0.000648963490066736,-2.53204378323294e-05,3.80072867039778e-05
-0.00155937680955987,0.000644314327497144,-3.12655443399184e-05,3.71848669398261e-05
-0.00156309613961554,0.000635457076755588,-3.57390552239055e-05,3.25384748846075e-05
-0.00156934270676033,0.000626540221365703,-4.21948392707304e-05,2.6542736843588e-05
-0.00157711515290231,0.000617861784569131,-5.13312568243155e-05,2.03644615249255e-05
-0.00158497104555196,0.000607454812971044,-6.05692126004771e-05,1.38109907645615e-05
-0.0015909553522441,0.000596940553005967,-6.68770458143018e-05,7.02920416779404e-06
-0.00159235010101498,0.000588762795255351,-6.89259882899562e-05,1.2029417736928e-06
-0.00158936986859857,0.000582444702532572,-6.6631739774436e-05,-2.48832836990008e-06
-0.00158169278989391,0.000576353107473439,-6.0305795498855e-05,-4.32159029079455e-06
-0.00157190570663844,0.000572848354151747,-5.12876344661411e-05,-6.225624924422e-06
-0.00156333455820886,0.000565671954493043,-4.23880772930382e-05,-1.01342865771057e-05
-0.00155633697249514,0.000556671652595499,-3.61385342959018e-05,-1.59949717778002e-05
-0.00155065068904464,0.000549328359921477,-3.24175732127997e-05,-2.1907101839265e-05
-0.00154705056828562,0.00054199698817712,-2.86283317695405e-05,-2.63709019553341e-05
-0.00154187688481074,0.000535762341962,-2.24994084409904e-05,-2.94050183102844e-05
-0.00153143415042365,0.000532841714193923,-1.43296446720996e-05,-3.08226395240754e-05
-0.00152313718337638,0.000534045728090151,-6.45436408323269e-06,-2.86935979624115e-05
-0.00151823768128381,0.000538218053473118,-9.22429700950574e-07,-2.11230931724992e-05
-0.0015145660349468,0.000547599825119962,2.26494007682026e-06,-9.04647735146532e-06
-0.00151152619788207,0.000561952624437369,4.94749454238054e-06,4.35478493455807e-06
-0.00150649556556318,0.000572538409980441,8.78213223155771e-06,1.69235606373211e-05
-0.00150307425874914,0.00058068040494206,1.31546248413268e-05,2.88263492211652e-05
-0.00150091657047967,0.000593233143879959,1.54935778915763e-05,4.07209656694065e-05
-0.00150140532859596,0.00060496333867093,1.4277073744837e-05,5.22178563247975e-05
-0.00150359877965443,0.000612449682500939,1.13204220631719e-05,6.23763840001569e-05
-0.00150616177953254,0.000619244612410343,1.01063238767059e-05,7.02861046452351e-05
-0.00150455245402768,0.000625097788876163,1.21008612892007e-05,7.48787556795138e-05
-0.00149981984495043,0.00062532428653981,1.59954916193663e-05,7.56082610078823e-05
-0.00149488458006886,0.000621926821585108,2.04617425531955e-05,7.36121822707079e-05
-0.00149210700345677,0.00062004331469794,2.5662624771065e-05,7.04695417937526e-05
-0.00148627766885028,0.000613784826623489,3.11350130813876e-05,6.50381534153704e-05
-0.00148246297135728,0.000604474580554639,3.40909125761521e-05,5.32205229491965e-05
-0.00148631343163928,0.000582146679290931,3.18752141827109e-05,3.23427577061283e-05
-0.00149346598943865,0.000556063685182553,2.53980617747528e-05,4.99470120534562e-06
-0.00150110730535432,0.000530445607331133,1.83070936908979e-05,-2.25143301843533e-05
-0.00150661477485983,0.000508940250214353,1.31204392481332e-05,-4.49159122693405e-05
-0.00151031026305617,0.000494217902077311,9.87747076072215e-06,-6.06579326997055e-05
-0.00151410111868984,0.000485038786234783,8.10389533945454e-06,-7.11114729635716e-05
-0.00151505479306309,0.000480568437610175,7.57759573883641e-06,-7.85367778689595e-05
-0.0015165091464823,0.000475835828532924,6.68859743888987e-06,-8.43961575292254e-05
-0.00152130136020788,0.000473761586771106,2.77627468842591e-06,-8.85387271413972e-05
-0.00153037318768341,0.000474643735566362,-4.08698336452238e-06,-8.99912845193898e-05
-0.00153660783389853,0.00047854187956702,-9.4750012391465e-06,-8.87434274591536e-05
-0.00153664359668753,0.000483858614197887,-9.04530452192826e-06,-8.59901958757778e-05
-0.00153290042477253,0.00049035552086565,-3.62415000730456e-06,-8.2179368652047e-05
-0.00152908572727953,0.000498557120475597,2.32119844146623e-06,-7.60371304759898e-05
-0.00152606973207413,0.000512278110520727,6.4423939038646e-06,-6.68010245468773e-05
-0.00152354249498501,0.000524687798302638,9.95624951261555e-06,-5.67496660140024e-05
-0.0015213967276452,0.00053383115135617,1.35334721733983e-05,-4.99266546947632e-05
-0.00152286300199407,0.000540566476617245,1.52284925299738e-05,-4.80079967975747e-05
-0.00152471074609224,0.000543403657877663,1.39082852361203e-05,-4.82280881953663e-05
-0.0015282274203436,0.000547742876275949,1.1768377637182e-05,-4.59009167085043e-05
-0.00153129109926767,0.000560295615213848,1.09989956127305e-05,-3.8976087464857e-05
-0.00153481969444869,0.00057194236349716,1.01492282610635e-05,-2.99969286820056e-05
-0.00153855094543403,0.000581467186299991,6.84550480650961e-06,-2.32290672704628e-05
-0.00154542932185109,0.000590121781237231,2.53783404785646e-06,-1.96347546670584e-05
-0.0015492082565551,0.000597786939012226,7.213988441584e-07,-1.54501987010859e-05
-0.00155084142391929,0.000609028375686906,9.332370473335e-07,-6.64728499308e-06
-0.00155534753533289,0.000626838244607344,-1.22387577653391e-06,6.12144428787538e-06
-0.00156264314428825,0.000642728843851617,-7.1718668320862e-06,1.8845064990722e-05
-0.00157006988346993,0.000657045880380027,-1.24964103823e-05,2.97079511388272e-05
-0.00157346734842463,0.000671267549471113,-1.30644181805546e-05,4.0335344579504e-05
-0.00157200107407576,0.000686121027834477,-1.05904140458515e-05,5.10460151168837e-05
-0.00157326469262032,0.000695574325059314,-9.20824130955125e-06,5.84945101217541e-05
-0.00157470712510986,0.000702631515421362,-9.29843439000414e-06,6.04202375977508e-05
-0.0015765310273487,0.000704479259519533,-8.50632210721526e-06,5.99573169867657e-05
-0.001576912497098,0.000709009212792469,-7.1434004649944e-06,6.16529007049853e-05
-0.00157978544114741,0.000715446514811904,-8.20506119873001e-06,6.45845593948132e-05
-0.00158535251530126,0.000717926068182353,-1.21829067302368e-05,6.33619093816684e-05
-0.00159111032432975,0.00071219210101319,-1.5698979915202e-05,5.60341394157973e-05
-0.0015932799335289,0.000706160110602385,-1.60704721965832e-05,4.74262998831783e-05
-0.00159333953817722,0.000705754798993754,-1.42887632520141e-05,4.33391624980177e-05
-0.00159233818008531,0.000708830398847484,-1.26098863018323e-05,4.40205940542667e-05
-0.00159373292885619,0.000710201305759031,-1.17780987966478e-05,4.51795221946955e-05
-0.00159611711478931,0.000713145775386439,-1.15915358715179e-05,4.38682778749911e-05
-0.00159647474267928,0.000711953682419877,-1.17438910699183e-05,4.14141594290968e-05
-0.00159580717061801,0.000712800068426136,-1.07575062523628e-05,4.10026966726454e-05
-0.00159465084044044,0.000717353863558403,-6.13690869310968e-06,4.37084070665355e-05
-0.00158687839429846,0.000722146077283983,2.77621094503028e-06,4.6991364869849e-05
-0.00157544622274913,0.000722825570274923,1.33223117109973e-05,4.65934921240709e-05
-0.0015681029300751,0.000717461151925394,2.19930012441916e-05,4.00748097155718e-05
-0.00156583795343864,0.000706934971030651,2.73323990908378e-05,2.88678126240655e-05
-0.00156267890707725,0.000695717376215301,2.98393037582507e-05,1.68332147825153e-05
-0.00156161794433701,0.000686168711553139,3.05259720864082e-05,6.8602861790216e-06
-0.0015632153489122,0.00067917112583942,3.04177030804308e-05,-7.83733191986612e-07
-0.00156507501394004,0.000673031847061625,3.0103237432053e-05,-6.95988568023101e-06
-0.00156532535346301,0.000668275396125042,2.89753044931052e-05,-1.14649325935302e-05
-0.00156809100914544,0.000666856805494833,2.61187412056735e-05,-1.30338431512051e-05
-0.00157216796709108,0.000668776075170998,2.23118573535271e-05,-1.13883342214157e-05
-0.00157631645061472,0.000670480768113182,1.94740673772406e-05,-8.57279742371614e-06
-0.00157704362732432,0.000670862237862482,1.77346286423721e-05,-7.43977192206802e-06
-0.00157858142725119,0.000670075456504551,1.51991973914241e-05,-8.50170007035132e-06
-0.0015822173107992,0.000668776075170998,1.13483413556115e-05,-9.04594794180504e-06
-0.00158737907334441,0.000669121782131301,8.05561418103352e-06,-6.44403642126771e-06
-0.00158708105010277,0.000674176256309524,5.63691644388529e-06,-2.00855831960622e-06
-0.00159100303596276,0.000674295465606181,3.10706134616333e-07,-1.62342194717694e-08
-0.00160431871439926,0.000671005289018469,-1.19507325008316e-05,-2.58433397475479e-06
-0.00162260542050632,0.000664901773029671,-3.03411672474052e-05,-7.13147228451492e-06
-0.00163857946625826,0.000660920182521354,-4.99111346634592e-05,-9.771979030217e-06
-0.00165491113990016,0.000660121480233757,-6.60511024092463e-05,-9.73791222536469e-06
-0.00166530619056858,0.000659120122141845,-7.65574520987352e-05,-9.1861013372252e-06
-0.00166789303230602,0.00065652135947474,-8.10008004772228e-05,-9.92669134772098e-06
-0.00166562805566955,0.000653433838691344,-8.07809882721976e-05,-1.20041110781065e-05
-0.00166361341855606,0.000649189987730383,-7.90731978755282e-05,-1.47191661945268e-05
-0.00166131267913059,0.000645172634433069,-7.81744213240287e-05,-1.74215022180371e-05
-0.00165846357694051,0.000640654602089799,-7.6924187085871e-05,-1.973704912675e-05
-0.00165201435399141,0.000637364425502087,-7.24434289584832e-05,-2.23097785463506e-05
-0.00164340744277283,0.000631427802528608,-6.40136517650283e-05,-2.6634309572427e-05
-0.00162993679225068,0.000623154677340667,-5.35098536454607e-05,-3.26512631635822e-05
-0.00161813507188172,0.000618231333388766,-4.24188388473828e-05,-3.7209290095161e-05
-0.00160449752834425,0.000616610086954241,-3.02183547231831e-05,-3.68637022964652e-05
-0.00158791551517937,0.00061928037519934,-1.55602177399376e-05,-3.2160572698595e-05
-0.00156843671610574,0.000623416937793311,2.27521402975075e-06,-2.75601703729719e-05
-0.00154627570785735,0.000622582472716717,2.25331879088366e-05,-2.70114919196336e-05
-0.00152698764365838,0.000616669691602569,4.20824222715098e-05,-3.07547553848806e-05
-0.00150951156076858,0.000609946287271159,5.61049718793741e-05,-3.61375404127942e-05
-0.00150187024485291,0.000606370008371473,6.16826567710651e-05,-3.99926380148154e-05
-0.00150371798895109,0.000603389775955068,6.0625770650762e-05,-4.02180487287029e-05
-0.00150508889586263,0.000605618989802539,5.74714516048285e-05,-3.6621116196127e-05
-0.00150313386339747,0.000611352956971702,5.53498822213553e-05,-3.08451220223973e-05
-0.00150389680289607,0.000615584887002998,5.51475088858869e-05,-2.49453819519672e-05
-0.00150203713786823,0.000619030035676362,5.7147458530491e-05,-2.01433198216657e-05
-0.00149475344984254,0.000621211565805171,6.06041328226384e-05,-1.71174501870737e-05
-0.00149203547787878,0.000620877779774533,6.23143157800874e-05,-1.60725675362573e-05
-0.00149569520328612,0.00062137845882049,5.89214965524038e-05,-1.53161381417885e-05
-0.00150179871927492,0.000623738802894282,5.12103341484783e-05,-1.14313519339304e-05
-0.00150810489106803,0.000630474128155358,4.35015406147519e-05,-3.13519426898722e-06
-0.00151188382577204,0.000639748611435211,3.81512237294973e-05,6.04640528143021e-06
-0.00151722440226223,0.000643527546139213,3.32354484713451e-05,1.13993432443003e-05
-0.00152264842526009,0.000644362011215807,2.66507077638114e-05,1.25982012489477e-05
-0.00152795323896129,0.000642788448499945,1.99145866001678e-05,1.31757222819193e-05
-0.00153118381090068,0.0006448150065431,1.6187222432438e-05,1.52563269595223e-05
-0.00153099307602603,0.000647199192476224,1.63456767389088e-05,1.79043117043013e-05
-0.00152771482036798,0.000647199192476224,1.87134402369233e-05,2.02236418049604e-05
-0.00152465114144392,0.00064865354589543,2.12632250784591e-05,2.24642804890988e-05
-0.00152320870895438,0.000650143662103633,2.24395330059636e-05,2.38289450968979e-05
-0.00152394780659364,0.000647652187803518,2.0971194160633e-05,2.29690710172092e-05
-0.00152891883426421,0.000644743480965106,1.66792935618219e-05,2.15082176988687e-05
-0.00153387794100511,0.000646233597173309,1.09697578653929e-05,2.32539120715737e-05
-0.00153939733144029,0.000649845638861992,5.2439559465211e-06,2.84120495468008e-05
-0.00154502401024246,0.000653135815449704,-6.95155721157871e-07,3.22173388668354e-05
-0.00155328521450074,0.000650894680672567,-7.66890659052681e-06,3.12667365996488e-05
-0.00156042585137044,0.000645530262323037,-1.52905902148585e-05,2.77145644412087e-05
-0.00156629094876593,0.000642788448499945,-2.23296252374948e-05,2.48000683420695e-05
-0.00157452831116487,0.000637817420829381,-2.84488866316117e-05,2.17731043349838e-05
-0.00158020267368571,0.000631976165293227,-3.44240149601088e-05,1.65847374854519e-05
-0.00158696184080612,0.000623846091261273,-4.08009232573628e-05,1.06781689358264e-05
-0.00159268388704562,0.000620448626306571,-4.71062191456011e-05,7.17827280326562e-06
-0.00159915695185405,0.0006182194124591,-5.21002519415601e-05,6.31467109203268e-06
-0.00160248289123076,0.000616169012556613,-5.42463805996938e-05,6.47705833353551e-06
-0.00159977684019666,0.000617432631101169,-5.25510727020796e-05,8.19199715779057e-06
-0.00159575948689935,0.000621151961156843,-4.77329264794914e-05,1.30051954371055e-05
-0.00159142026850106,0.000626254119053728,-4.19596883545982e-05,1.94666147914109e-05
-0.00158704528731378,0.000629532374711774,-3.65682315331081e-05,2.43072135725023e-05
-0.00158028612019337,0.000631225146724292,-3.07196362442023e-05,2.70959456149415e-05
-0.00157434949721989,0.000633275546626779,-2.33686833683071e-05,2.98324962178654e-05
-0.00156838903238708,0.000634372272156016,-1.58358160563789e-05,3.23401120063289e-05
-0.0015635968186615,0.000632774867580823,-1.08452482259603e-05,3.24538540578825e-05
-0.00156240472569494,0.000630831756045327,-9.15097008400422e-06,3.11764315823063e-05
-0.00156250009313226,0.000632369555972192,-8.62866094068565e-06,3.30787319535826e-05
-0.00156291732567056,0.000636613406933153,-6.97653543248931e-06,3.98092958416992e-05
-0.00156031856300345,0.000643634834506204,-4.05515477420348e-06,4.66750582324805e-05
-0.00155742177709471,0.000643098392671251,-1.11233964116625e-06,4.76644512970373e-05
-0.00155662307480711,0.000636327304621178,1.23631924008621e-06,4.12430625222911e-05
-0.00155599126553483,0.000623536147089967,3.6270697202014e-06,2.96574060347993e-05
-0.00155235538198682,0.000608658826867272,7.24285976379528e-06,1.54885781771461e-05
-0.00154733667059759,0.000593805348503908,1.2881907433665e-05,1.16265812267857e-06
-0.00154209146154472,0.000581908260697619,1.99904146693274e-05,-1.06048836850318e-05
-0.00153704890829616,0.000572359596035456,2.62509153657691e-05,-1.8779037039412e-05
-0.00153418788517641,0.000566113028890671,2.90493405859141e-05,-2.53405418462602e-05
-0.00153673896412486,0.000558340582748686,2.8122598921717e-05,-3.27125667556755e-05
-0.0015400172197829,0.000550007852912417,2.61705165748633e-05,-4.09416835977324e-05
-0.00154073247556284,0.000541591676568489,2.60233569674119e-05,-4.89643427444199e-05
-0.00154088744764849,0.00053383115135617,2.74763796144405e-05,-5.71349160857255e-05
-0.0015411973918198,0.000524616272724645,2.75854706478627e-05,-6.63783760029438e-05
-0.00154633531250568,0.000515806705701751,2.39141982467878e-05,-7.57567293633712e-05
-0.00155496606558359,0.000508463413027728,1.69232874742371e-05,-8.27994612650119e-05
-0.00156288156288156,0.000506794482874541,9.26307407814074e-06,-8.56633977314496e-05
-0.00157041559043024,0.000509345561822984,3.22349431825821e-06,-8.35475915418973e-05
-0.00157588729714676,0.000517833263744906,-1.05066479962489e-06,-7.60138508347812e-05
-0.00158156165966759,0.00052990916549618,-5.08759751483967e-06,-6.3862088542101e-05
-0.0015867949477908,0.000545847448459115,-9.9797487345325e-06,-5.01851441022051e-05
-0.00159304151493558,0.000558042559507046,-1.49923756412628e-05,-3.86849449944704e-05
-0.00159909734720572,0.000566458735850974,-1.86572578397547e-05,-3.08467682386238e-05
-0.00160127887733453,0.000573158298323053,-2.09119191816968e-05,-2.57649506946763e-05
-0.00160492668181221,0.000578904186421882,-2.30694835281111e-05,-2.22097423615276e-05
-0.0016088129048832,0.00058231357230625,-2.54863412608995e-05,-1.95578220706148e-05
-0.00161157856056562,0.000585782562838945,-2.65978070364882e-05,-1.70197942655214e-05
-0.00161002883970909,0.000592815911341662,-2.50057167312256e-05,-1.31552547546832e-05
-0.00160812149096259,0.000600957906303281,-2.11761126655604e-05,-6.20437374331372e-06
-0.00160443792369592,0.000613582170819173,-1.58674825164424e-05,5.14790412706559e-06
-0.00159735689147454,0.000630319156069705,-8.32986945185957e-06,1.99337676094112e-05
-0.00158849964073298,0.000646758118078596,1.81706066716085e-06,3.31422100531592e-05
-0.00157982120393641,0.000652575531755419,1.1841333944677e-05,3.80374726404553e-05
-0.00157539853903046,0.000648331680794458,1.7958494535846e-05,3.25532048442005e-05
-0.0015727163298557,0.000642037429931011,2.04934558504028e-05,2.22230179394936e-05
-0.00157107124156184,0.000635755099997228,2.42352348289755e-05,1.45625436609426e-05
-0.00156390676283281,0.000633728541954073,3.22706348905962e-05,1.16289306594985e-05
-0.00155550250741854,0.000636065044168535,4.1518291124793e-05,1.04545221532484e-05
-0.00155204543781551,0.000637316741783425,4.62182331680732e-05,9.2485392116419e-06
-0.00155426273073332,0.000637829341759046,4.45039904178354e-05,9.24474717425723e-06
-0.00156047353508911,0.00064260963455496,3.95955618744014e-05,1.05547696377281e-05
-0.00156586179529797,0.000644075908903832,3.53303661871069e-05,1.04681796098031e-05
-0.00156878242306604,0.000643527546139213,3.25770447459023e-05,7.55169941906185e-06
-0.00157173881362312,0.000642466583398973,3.00253282912586e-05,4.51137959569743e-06
-0.00157718667848031,0.000644063987974166,2.68223903402525e-05,5.13588323462327e-06
-0.00157973775742875,0.000653433838691344,2.36978896096108e-05,1.04930678070369e-05
-0.00158146629223027,0.000662589112674541,2.18731921727133e-05,1.94943158066943e-05
-0.00158439884092801,0.00067571405623639,2.09547933354341e-05,3.07195705251759e-05
-0.00158696184080612,0.000689506571859513,1.81032196006831e-05,4.16730572832708e-05
-0.00159451971021412,0.000697004836619189,1.03968369175788e-05,4.84370907874804e-05
-0.0016069055561367,0.000699114841170003,-1.44536820568238e-06,4.8801350434125e-05
-0.00161890993230998,0.000696611445940223,-1.29816216319801e-05,4.47517544240681e-05
-0.00162620554126534,0.000693345111211843,-2.06625634137836e-05,3.98271426837161e-05
-0.00163075933639761,0.000689530413718844,-2.51738409739549e-05,3.50838478989757e-05
-0.00163431177343796,0.000685405772054539,-2.88547221577699e-05,2.9712160466796e-05
-0.00163661251286343,0.000681626837350537,-3.15417843063007e-05,2.44343448362995e-05
-0.00163685093145674,0.000679349939784404,-3.15518000955048e-05,2.14953463041353e-05
-0.00163408527577432,0.000680005590916013,-2.97869531789534e-05,2.13808832045994e-05
-0.00163295278745608,0.000681829493154853,-2.94814033902005e-05,2.17979427002186e-05
-0.00163556347105285,0.000680482428102638,-3.14282201054956e-05,2.01864334972426e-05
-0.00163477668969492,0.000676524679453652,-3.25324934331147e-05,1.56786714422323e-05
-0.00163224945260581,0.000670301954168198,-3.05661771340709e-05,8.79248679297203e-06
-0.0016293765085564,0.000663459340540131,-2.80014674730464e-05,1.15075805423185e-06
-0.00162878046207312,0.000657618085003977,-2.90248451326514e-05,-4.41699882263488e-06
-0.00163303623396374,0.00065633062460009,-3.4086212717475e-05,-5.69614142973413e-06
-0.00163776884304099,0.000659465829102148,-3.95079548242091e-05,-3.89241290459794e-06
-0.00163798341977497,0.000659561196539473,-4.19056092966331e-05,-3.07348443077888e-06
-0.00163676748494908,0.000655865708343131,-4.1041944905933e-05,-5.86903302583434e-06
-0.00163261900142544,0.000652480164318094,-3.82566729427476e-05,-1.08596066460453e-05
-0.00162608633196868,0.000647473373858534,-3.3971733846692e-05,-1.49638430950666e-05
-0.00161969671366791,0.000644385853075138,-2.81243025153118e-05,-1.70414100448505e-05
-0.0016125918395872,0.000643897094958847,-2.26346560617086e-05,-1.77807102238729e-05
-0.00160979042111578,0.000645160713503403,-2.18351121413288e-05,-1.69733104368075e-05
-0.00161554823014428,0.00064740184828054,-2.89089743022118e-05,-1.29731355844393e-05
-0.0016270519272716,0.000654232540978941,-4.16377042598324e-05,-5.43453207078647e-06
-0.00163635025241078,0.000663590470766453,-5.28902222687206e-05,2.73010936329974e-06
-0.00163753042444768,0.000666415731097205,-5.63310462789194e-05,7.50051765737021e-06
-0.00163205871773116,0.000665628949739274,-5.10136190284377e-05,7.7536505024205e-06
-0.00161803970444439,0.000664269963757394,-3.96687343862729e-05,5.88857351864691e-06
-0.00160043249132827,0.000660967866240017,-2.40750624869722e-05,3.89461742643067e-06
-0.00158019075275604,0.000656676331560393,-4.4178626591739e-06,7.01526990080636e-08
-0.00155650386551046,0.000646114387876653,1.7475537573801e-05,-8.67378628471247e-06
-0.00153408059680942,0.000633943118688054,3.73013307342993e-05,-2.1696079394271e-05
-0.00151937016960205,0.000619924105401284,5.15484618251887e-05,-3.39684100488403e-05
-0.00150958308634657,0.00061198476624398,5.96334774812873e-05,-4.11017497612139e-05
-0.00150491008191765,0.0006090999012649,6.22927652656087e-05,-4.31663796445238e-05
-0.00150601872837655,0.000609207189631891,6.03495455692881e-05,-4.26420222728149e-05
-0.00150845059802834,0.0006102443105128,5.62789253466008e-05,-4.06869131484422e-05
-0.00150897511893362,0.000612449682500939,5.44105799940278e-05,-3.72093913255823e-05
-0.00150508889586263,0.000616145170697282,5.71375918943881e-05,-3.28868521582709e-05
-0.00149923571939681,0.000620281733291252,6.21238318660254e-05,-2.85697946578282e-05
-0.00149436005916357,0.000623619593597626,6.51578881586504e-05,-2.34542221126319e-05
-0.0014944554266009,0.00063079599325633,6.46500546091052e-05,-1.62801223898667e-05
-0.00149642237999573,0.000637555160376737,6.15522976007268e-05,-8.15082703664065e-06
-0.00150119075186197,0.000643050708952588,5.63554471678034e-05,-2.08504497978103e-06
-0.00150688895624214,0.000644946136769422,4.89368166216015e-05,2.57342196878456e-07
-0.0015145660349468,0.000643849411240185,4.08117459886585e-05,-1.61672824000563e-07
-0.00152175435553517,0.000640380420707489,3.45868016879895e-05,-1.27332331834744e-06
-0.00152336368104003,0.000642335453172651,3.05816752028954e-05,-8.88273209445013e-07
-0.00152720222039236,0.000644874611191428,2.61177671733719e-05,2.95013060831693e-06
-0.00153601178741525,0.000649559536550017,1.90151537535076e-05,9.95849796089741e-06
-0.00154365310333092,0.000656533280404406,1.03020887672717e-05,1.63555319350844e-05
-0.00154949435886707,0.000658965150056192,2.69327027856299e-06,1.85305899648892e-05
-0.0015564204190028,0.000655996838569453,-2.40570234080458e-06,1.78821672163356e-05
-0.00155980596302783,0.000656032601358449,-5.59927949232143e-06,1.87747614510015e-05
-0.00156122455365804,0.000659859219781114,-8.13967454433254e-06,2.15939342926699e-05
-0.00156420478607445,0.000658619443095889,-1.06835907749921e-05,2.19368025019272e-05
-0.00156766185567748,0.000653302708465022,-1.29949140500815e-05,1.78182778200373e-05
-0.00156905660444835,0.000648236313357133,-1.44239786418262e-05,1.31044447751644e-05
-0.00156954536256464,0.000646805801797259,-1.48204788658993e-05,1.11912333178374e-05
-0.00157026061834458,0.000642788448499945,-1.48865568992367e-05,9.69089682686992e-06
-0.00157190570663844,0.000638973751006946,-1.53720871268037e-05,5.62921382184816e-06
-0.00157290706473035,0.000635576286052244,-1.64342474592223e-05,2.36717020543035e-06
-0.00157619724131806,0.000636863746456131,-1.83977283621009e-05,5.4671524584538e-06
-0.00158028612019337,0.000644254722848816,-2.2350864810116e-05,1.31136759619601e-05
-0.00158796319889803,0.00064778331802984,-2.87038488018218e-05,1.68941256517235e-05
-0.00159586677526634,0.000642788448499945,-3.5603256174229e-05,1.2836232342131e-05
-0.00160106430060055,0.00063463453260866,-4.03121260964894e-05,6.2148321957082e-06
-0.00160386571907197,0.000632059611800886,-4.21067092251294e-05,3.35614623895611e-06
-0.00160558233294382,0.000631344356020949,-4.23610692517754e-05,3.33612486271652e-06
-0.00160595188176345,0.000627768077121262,-4.18234925220104e-05,1.08025083180294e-06
-0.0016042352678916,0.000620877779774533,-3.95776001468484e-05,-4.72687711872293e-06
-0.00160146961220918,0.000614905394012057,-3.51004213827619e-05,-1.09082920541147e-05
-0.0015974045751932,0.000609946287271159,-2.96610710717368e-05,-1.51194888877971e-05
-0.00159285078006093,0.000605726278169529,-2.49463407936541e-05,-1.77164975670861e-05
-0.00159134874292307,0.000603783166634033,-2.16503991569566e-05,-1.85537871136654e-05
-0.00159142026850106,0.000607800519931347,-1.99066724294675e-05,-1.55678091269924e-05
-0.00159074077551012,0.000613796747553155,-1.93420536278794e-05,-7.74985979441064e-06
-0.00159096727317377,0.000622689761083708,-1.78231912146671e-05,2.51824193723586e-06
-0.00158720025939943,0.000630629100241011,-1.21983603286367e-05,1.12394129528098e-05
-0.00157769927845593,0.000636541881355159,-2.11190954234892e-06,1.59334508052214e-05
-0.00156823406030143,0.000634908713990969,8.28106843459259e-06,1.67995131440231e-05
