BCL,BCC,BCL_Filtered,BCC_Filtered
-,-,-,-
-0.00297324675162117,-0.000923323686321001,-1.37259907579013e-21,6.68034358634926e-21
-0.00297201889586561,-0.000928330476780562,9.54848872238207e-07,-6.63280970337268e-06
-0.00296962278900282,-0.000934529360206685,3.06777044516776e-06,-1.2286335663286e-05
-0.00296676176588307,-0.000937902983302056,5.27898557425692e-06,-1.72056837101697e-05
-0.00296635645427444,-0.000941777285443382,5.77234718811519e-06,-2.16578255363174e-05
-0.00296702402633572,-0.000942826327253957,4.69710422313602e-06,-2.38576941522755e-05
-0.00296728628678836,-0.000938749369308315,3.81951910579284e-06,-2.05859823332279e-05
-0.00296722668214003,-0.000928854997685849,3.98413435126877e-06,-1.06593595292554e-05
-0.00296590345894715,-0.000913965756533489,4.53116740920365e-06,2.94441508994888e-06
-0.00296573656593183,-0.000900554710659665,5.00034126870893e-06,1.53588206048696e-05
-0.00296399611020065,-0.00089123254366115,5.71593639628884e-06,2.40018724677746e-05
-0.00296330469628004,-0.000886261515990586,6.49909901332346e-06,2.98513483494048e-05
-0.00296312588233506,-0.000878894381457232,6.4399360512514e-06,3.50631322648648e-05
-0.00296344774743603,-0.000872731260820106,5.57348230332205e-06,4.04995432855995e-05
-0.00296323317070205,-0.000868523172648142,5.41192034266108e-06,4.55315421781871e-05
-0.00296182650100151,-0.000864768079803471,6.89438767290295e-06,4.88077460292957e-05
-0.00295916813368607,-0.000863421014751256,8.80687124979188e-06,4.85787350822905e-05
-0.00295875090114778,-0.000868427805210817,9.21999327292301e-06,4.35297720968184e-05
-0.00295970457552103,-0.000878679804723251,7.76812793968771e-06,3.45455426027046e-05
-0.00296171921263452,-0.000886607222950889,5.56040724307858e-06,2.50677833615025e-05
-0.00296334045906904,-0.000892627292432027,3.49022091181633e-06,1.84778344421013e-05
-0.00296517628223755,-0.000897121482915967,1.74456134419621e-06,1.52757485722086e-05
-0.00296534317525286,-0.00089795594799256,5.78500095010058e-07,1.37675304863271e-05
-0.00296590345894715,-0.000898468547968182,3.4630680538428e-07,1.31536756893833e-05
-0.00296511667758922,-0.000897336059649948,7.26548995453792e-07,1.44305720982161e-05
-0.00296431797530162,-0.000894153171429227,8.52399250330966e-07,1.79362827873864e-05
-0.00296496170550357,-0.000890862994841516,3.21642528752644e-07,2.156655357328e-05
-0.00296551006826818,-0.000889551692578297,-6.67171790587642e-07,2.26706591398308e-05
-0.00296669024030508,-0.000891733222707106,-2.15563400972806e-06,2.10089954230519e-05
-0.00296881216578556,-0.000894737296982842,-4.45894646284893e-06,1.85368222949368e-05
-0.00297091024940671,-0.000897038036408307,-7.13341291676676e-06,1.65573596775388e-05
-0.00297279375629388,-0.000898957306084472,-8.82062568218956e-06,1.4647338945283e-05
-0.00297199505400628,-0.000901711040837231,-8.6467664392459e-06,1.28431701820268e-05
-0.00297024267734544,-0.000902128273375527,-7.18952251340934e-06,1.32619726257291e-05
-0.00296865719369991,-0.000896883064322654,-5.60389040170585e-06,1.77704112182507e-05
-0.00296696442168739,-0.000892126613386071,-4.35933291006538e-06,2.42964489958845e-05
-0.00296573656593183,-0.000889718585593616,-3.40311344143928e-06,2.72162400027663e-05
-0.00296522396595621,-0.000894630008615852,-3.05195337788161e-06,2.22704842822532e-05
-0.00296577232872083,-0.000907278114991076,-3.8387243197362e-06,1.02907787290719e-05
-0.00296701210540605,-0.000923693235140636,-5.47323412818225e-06,-4.5757688643601e-06
-0.00296819227744295,-0.000938534792574334,-6.67069987978655e-06,-1.93626641807933e-05
-0.00296758431003,-0.00095324521978171,-6.40003879306229e-06,-3.38630961217631e-05
-0.00296601074731414,-0.000969076214377654,-5.04216111481273e-06,-4.84103872469519e-05
-0.00296455639389493,-0.000983464776484059,-3.91930090254622e-06,-6.18100163524398e-05
-0.00296448486831694,-0.000993609487629502,-3.64242009610411e-06,-7.1941204925405e-05
-0.00296359079859202,-0.000999879896633619,-3.33533542281052e-06,-7.75481027572975e-05
-0.00296195763122783,-0.00100252634301939,-1.96983396005168e-06,-7.92144440025702e-05
-0.00296063440803494,-0.00100370651505628,-2.68520902558618e-07,-7.92868195077308e-05
-0.00296005028248133,-0.00100488668709318,-2.96131432491176e-07,-8.06876759765313e-05
-0.0029622794963288,-0.00100948816594411,-2.63759567559647e-06,-8.45056004852146e-05
-0.00296450871017627,-0.00101436382617735,-4.95923883380786e-06,-8.83273280289375e-05
-0.00296427029158296,-0.00101475721685631,-4.60583431189244e-06,-8.78961671582017e-05
-0.00296132582195555,-0.0010073066358153,-2.0595383123209e-06,-8.06441903776576e-05
-0.00295918005461574,-0.000993824064363483,-1.5436145631827e-07,-6.66224855518448e-05
-0.00295945423599805,-0.00097523933501478,3.7121932054888e-08,-4.64469436389277e-05
-0.00295844095697647,-0.000949823912967677,4.21517283919339e-07,-2.09828090454807e-05
-0.00295686739426061,-0.000922584588681733,2.27485888715364e-06,5.991104822667e-06
-0.00295538919898207,-0.000901854091993218,3.61262304663916e-06,2.78938500498591e-05
-0.00295661705473763,-0.000889372878633313,1.99983453676102e-06,4.11765063321165e-05
-0.00296099203592491,-0.000881004386008047,-1.42577263023683e-06,4.96959475786394e-05
-0.00296140926846321,-0.000870227865590326,-2.97964770994968e-06,6.01719767156525e-05
-0.00295985954760668,-0.000857496312707443,-8.85914635353421e-07,7.37654708104826e-05
-0.00295592564081702,-0.000847780755029962,3.30725529783876e-06,8.5027784221177e-05
-0.0029515983433484,-0.000842607071555082,7.30483245969407e-06,8.88748914832806e-05
-0.00294914263183729,-0.00084639792718875,9.80569310928403e-06,8.52676326201405e-05
-0.00294952410158659,-0.000857138684817474,9.79913676766355e-06,7.66922958824514e-05
-0.00295226591540968,-0.000867855600586867,6.75702615643989e-06,6.49480816566178e-05
-0.0029573203895879,-0.000880432181384097,2.30627960807219e-06,5.22891392409928e-05
-0.00295975225923969,-0.000891292148309478,-5.00030080873715e-07,4.23693484321076e-05
-0.00295997875690334,-0.000897049957337973,-6.53640196846701e-07,3.69070704873568e-05
-0.00296022909642631,-0.000900709682745318,2.50526348323795e-09,3.31633055692912e-05
-0.00295901316160042,-0.00090639596619582,5.14103974555449e-07,2.74968342043143e-05
-0.00295683163147161,-0.000913810784447836,3.08137235622567e-06,2.01523948864692e-05
-0.00295071619455315,-0.000921237523629518,9.66935828028145e-06,1.3927824831027e-05
-0.00294210928333457,-0.000924897249036863,1.81886093796381e-05,9.3181964497885e-06
-0.00293614881850176,-0.000930082853441408,2.44257452195761e-05,4.12326483834294e-06
-0.00293405073488061,-0.000937688406568075,2.65095354333079e-05,-2.49265521582903e-06
-0.00293613689757209,-0.000943923052783194,2.50799147031314e-05,-8.60886450595299e-06
-0.00294052379968904,-0.000946903285199599,2.03776097517543e-05,-1.26487770286838e-05
-0.00294910686904829,-0.000950586852466276,1.24728040995462e-05,-1.54871435193407e-05
-0.00295751112446255,-0.000954568442974594,3.96895375047446e-06,-1.88577808578854e-05
-0.00296288746374175,-0.000958669242779567,-1.18491861962398e-06,-2.34677435343167e-05
-0.00296466368226192,-0.000963342247208491,-2.4468044430281e-06,-2.89852732879857e-05
-0.00296547430547919,-0.000970363674781541,-3.2484148513544e-06,-3.4168281202216e-05
-0.00296808498907596,-0.000972557125840016,-5.66251718871731e-06,-3.70330742521698e-05
-0.00297006386340045,-0.000971961079356735,-7.51152213258343e-06,-3.70080657898398e-05
-0.00296988504945547,-0.000972116051442388,-6.70417988913463e-06,-3.69881723121832e-05
-0.00296885984950422,-0.000977349339565595,-5.65517940333515e-06,-4.0775192876064e-05
-0.00297130364008568,-0.000983071385805093,-8.31376478110752e-06,-4.79842472762523e-05
-0.00297794359790943,-0.000988984166919241,-1.43350115522784e-05,-5.39036778331093e-05
-0.00298371332786759,-0.000990986883103066,-1.94431923386256e-05,-5.49025252293601e-05
-0.00298457163480351,-0.000987076818172742,-2.10531748292426e-05,-5.12140494019128e-05
-0.00298446434643652,-0.000979173241804435,-2.04946649879215e-05,-4.37719008979874e-05
-0.00298427361156187,-0.000967526493521124,-1.95392832679769e-05,-3.21157777570161e-05
-0.00298224705351872,-0.000953447875586025,-1.77186419088679e-05,-1.75709940191521e-05
-0.00297844427695538,-0.000940978583155786,-1.42007969114967e-05,-4.84090563332248e-06
-0.00297496336549302,-0.000932061727765901,-1.00089188921101e-05,3.28430565397813e-06
-0.00297193544935795,-0.000924789960669873,-6.7032407014112e-06,1.05265835481318e-05
-0.00296901482158988,-0.000913870389096164,-4.28905055585963e-06,2.23741131630958e-05
-0.00296726244492903,-0.000897908264273898,-2.080750722338e-06,3.79599112936124e-05
-0.00296626108683712,-0.000884580664907733,-7.01001434964926e-07,5.07459190072233e-05
-0.0029664756635711,-0.00087865596286392,-1.46405651859705e-06,5.68918104328328e-05
-0.00296961086807316,-0.000876915507132739,-4.00248657071591e-06,5.88693287510029e-05
-0.00297161358425698,-0.000875914149040827,-5.95728106331023e-06,6.03243297948463e-05
-0.00297046917500908,-0.000873768381701015,-5.29397501920242e-06,6.13465220001858e-05
-0.00296791809606064,-0.000874614767707274,-2.10422763972479e-06,6.03655796763453e-05
-0.00296368616602934,-0.000878918223316564,1.98819414776658e-06,5.73907376333624e-05
-0.002959954915044,-0.000882947497543543,5.4621997653091e-06,5.29825505045996e-05
-0.00295795219886018,-0.00088834767868207,7.81037110108874e-06,4.61755634704941e-05
-0.00295600908732468,-0.000899028831662466,9.52420562391345e-06,3.5847033734403e-05
-0.0029539229246332,-0.000913727337940177,1.14628930570714e-05,2.2890780255016e-05
-0.00295234936191734,-0.000926160867581419,1.37917197933234e-05,8.98711558021146e-06
-0.00294945257600859,-0.000939679201822233,1.53965955084038e-05,-5.87117164473468e-06
-0.00295064466897515,-0.000957977828858961,1.48096470999628e-05,-2.26689233163306e-05
-0.00295407789671885,-0.000976693688433986,1.18244113590681e-05,-4.06253381954999e-05
-0.00295736807330656,-0.000990951120314069,7.67495536011057e-06,-5.68344331724789e-05
-0.00296130198009622,-0.00100224024070741,3.56239729193118e-06,-6.85915035553512e-05
-0.00296565311942417,-0.00101004844963839,-1.92157058572767e-07,-7.49460877205703e-05
-0.00296835917045827,-0.00101130014725328,-3.27533408056581e-06,-7.62281648607331e-05
-0.00296988504945547,-0.00100674635212102,-4.83640092348805e-06,-7.33532232916143e-05
-0.0029690744262382,-0.00100084549193653,-4.83288902303838e-06,-6.76934346915784e-05
-0.00297014730990811,-0.000994908868963055,-5.04421484354354e-06,-6.05224285181526e-05
-0.00297205465865461,-0.000986349641463139,-7.14638143579241e-06,-5.21629519843185e-05
-0.00297427195157242,-0.000974536000164509,-9.97456173966326e-06,-4.22251633535471e-05
-0.00297420042599442,-0.00096304422396685,-1.03977938224086e-05,-3.07758981101927e-05
-0.00297222155166993,-0.000952351150056788,-7.29315169100329e-06,-1.86598763854959e-05
-0.002967548547241,-0.000939512308806914,-3.08831363677787e-06,-6.5742763590074e-06
-0.00296392458462266,-0.000925135667630176,-6.31840820989299e-07,5.45976323120446e-06
-0.00296397226834132,-0.000914144570478473,-5.29255763306817e-08,1.73741222184849e-05
-0.00296452063110594,-0.000904786640690961,1.33297786510184e-07,2.84104087507646e-05
-0.00296281593816375,-0.000891971641300418,2.77162825302028e-07,3.77225261213856e-05
-0.00296410339856764,-0.000884902530008705,-2.29068493908926e-07,4.51574067881881e-05
-0.00296397226834132,-0.000880444102313763,-9.29544225762749e-07,5.0686433785625e-05
-0.00296458023575427,-0.000875985674618821,-5.80205452606856e-07,5.33729670709401e-05
-0.00296283978002308,-0.000877034716429395,7.49912263584401e-07,5.22089928188754e-05
-0.00296049135687896,-0.00087990766047881,1.79339389856224e-06,4.8575737717103e-05
-0.0029611708498699,-0.000881671958069322,2.40194541344536e-06,4.67147722200567e-05
-0.00295997875690334,-0.000877928786154317,3.83511914307945e-06,5.01418639963419e-05
-0.00295596140360602,-0.000869202665639082,6.2916146635319e-06,5.74923710984369e-05
-0.00295478123156912,-0.000863540224047912,8.00692511573226e-06,6.30878369355281e-05
-0.00295591371988736,-0.000864219717038853,7.68380005517175e-06,6.21216712564882e-05
-0.00295618790126967,-0.000870466284183638,6.30642267685048e-06,5.47822435670468e-05
-0.00295721310122091,-0.000879156641909876,5.55112064443774e-06,4.53610750461464e-05
-0.00295689123611994,-0.000886261515990586,5.7145318410306e-06,3.82856506786963e-05
-0.00295670050124529,-0.000888514571697388,6.27193382472945e-06,3.49742510602126e-05
-0.00295535343619307,-0.000889384799562979,7.22415873652866e-06,3.29505983641047e-05
-0.00295381563626621,-0.000895309501606792,8.57463831739483e-06,2.71878196257143e-05
-0.00295336264093892,-0.000908041054489675,9.42684695612661e-06,1.36360823215069e-05
-0.00295336264093892,-0.000927412565196309,8.96143938306267e-06,-7.12556866439551e-06
-0.00295507925481077,-0.000950026568771992,7.6612431814939e-06,-2.99911854672253e-05
-0.00295578258966104,-0.000969028530658992,6.43042658354484e-06,-4.96423821482805e-05
-0.00295715349657258,-0.00098329788346874,5.21957931997728e-06,-6.42535877732178e-05
-0.00295890587323343,-0.000991988241194978,3.6863875157333e-06,-7.48748971402251e-05
-0.00295981186388802,-0.000999879896633619,2.3900031266774e-06,-8.28075041617982e-05
-0.00296013372898899,-0.00100573307309944,1.85670411097539e-06,-8.87009497255193e-05
-0.00296171921263452,-0.00100843912413353,1.05929559911464e-06,-9.28685233362485e-05
-0.00296320932884272,-0.00100915437991347,-1.55741039533766e-06,-9.49709509713998e-05
-0.00296804922628696,-0.00100902324968715,-5.80581886782944e-06,-9.42906237807196e-05
-0.0029721261842326,-0.00100537544520947,-9.99583166700061e-06,-9.15328926273713e-05
-0.00297518986315667,-0.00100164419422413,-1.32328356764798e-05,-8.90182072924323e-05
-0.00297747868165247,-0.000999152719924016,-1.5930917303046e-05,-8.737626158221e-05
-0.00298019665361623,-0.000995373785220014,-1.80924281195706e-05,-8.33824656434972e-05
-0.0029804827559282,-0.000984585343872627,-1.87358861077407e-05,-7.33386538466339e-05
-0.00297843235602572,-0.000967407284224467,-1.73910617549182e-05,-5.76287103543948e-05
-0.00297676342587253,-0.000949561652515033,-1.47849283515532e-05,-3.94565741180066e-05
-0.00297279375629388,-0.000929272230224146,-1.15878669642575e-05,-2.00065890155486e-05
-0.00296839493324726,-0.000906801277804451,-7.62805742068093e-06,1.95254492740711e-06
-0.00296430605437196,-0.00088260179058324,-2.74638725274032e-06,2.59124451611833e-05
-0.00295803564536784,-0.000859308294016617,2.63043764968056e-06,4.87102940795735e-05
-0.00295233744098767,-0.000838172485719471,8.05074162950534e-06,6.85980647855949e-05
-0.0029478909342224,-0.000821363974890946,1.29903517384323e-05,8.68443485676918e-05
-0.00294431465532271,-0.000803458738533183,1.59507847414204e-05,0.00010357497925923
-0.00294475572972034,-0.000790846394946956,1.50979049571797e-05,0.000114871221289003
-0.00294932144578227,-0.000790512608916319,1.06625914615363e-05,0.000116514997149132
-0.00295420902694517,-0.000797998952746329,5.56201104174477e-06,0.00010898893463868
-0.00295676010589362,-0.000809347677788,2.61870858915256e-06,9.65744299433066e-05
-0.00295699852448693,-0.00082298522132547,1.94801292547516e-06,8.26990098371935e-05
-0.00295723694308024,-0.00083882813685108,1.89632926082837e-06,6.81890899124437e-05
-0.00295709389192426,-0.000853562405917788,1.54130694620552e-06,5.30514414364937e-05
-0.00295727270586924,-0.000868320516843827,9.97571025362812e-07,3.75995947224721e-05
-0.00295819061745349,-0.00088469987420439,-4.2384778411028e-08,2.19651969816733e-05
-0.00296016949177799,-0.000901043468775956,-2.40150216504982e-06,6.38125809237964e-06
-0.00296351927301402,-0.000914704854172757,-5.88892796054869e-06,-7.7326740901874e-06
-0.00296599882638447,-0.000925684030394794,-8.89882707269451e-06,-1.8178252586458e-05
-0.00296710747284338,-0.000931596811508942,-1.00909675610226e-05,-2.38206302978211e-05
-0.0029664756635711,-0.000934112127668388,-9.82317393508128e-06,-2.5422406902386e-05
-0.00296554583105718,-0.000933218057943467,-9.40291649670615e-06,-2.46795022084172e-05
-0.00296570080314283,-0.000932407434726204,-9.30728960835307e-06,-2.2942761863389e-05
-0.00296430605437196,-0.000930714662713686,-8.73955275882334e-06,-2.06556172050001e-05
-0.00296216028703214,-0.000927269514040322,-6.96361889669965e-06,-1.74134177872901e-05
-0.00296026485921531,-0.000924491937428232,-4.57839886503132e-06,-1.26131618031072e-05
-0.00295767801747787,-0.0009180188726198,-3.03263276347188e-06,-6.4310153420719e-06
-0.00295736807330656,-0.000912237221731974,-2.9776214454252e-06,-1.06555856235802e-07
-0.00295847671976547,-0.000908541733535631,-3.61968530222757e-06,4.86677201836461e-06
-0.00295754688725155,-0.000906515175492476,-3.89455977588873e-06,7.61487005381705e-06
-0.00295783298956352,-0.000906670147578129,-3.76618617367176e-06,7.97280764013737e-06
-0.00295768993840754,-0.000909221226526572,-3.91597498179525e-06,6.17377428286202e-06
-0.00295767801747787,-0.000913476998417199,-4.55275952869868e-06,2.61494403560432e-06
-0.00295835751046881,-0.000919938142295965,-5.12670675537605e-06,-2.24057649098202e-06
-0.00295839327325781,-0.000925195272278504,-4.97161897632937e-06,-7.51374993684833e-06
-0.00295619982219933,-0.000929880197637093,-3.66403258734409e-06,-1.13581335601516e-05
-0.00295368450603989,-0.000931525285930949,-1.02948728855376e-06,-1.18045162200965e-05
-0.00295012014806987,-0.000929844434848096,2.53847390949312e-06,-9.19644498367245e-06
-0.00294686573427115,-0.000928032453538922,5.98414788464479e-06,-6.85490888720711e-06
-0.00294346826931645,-0.000929522569747124,8.4775628177065e-06,-7.67539872458602e-06
-0.00294202583682691,-0.000933361109099454,1.01672374938341e-05,-1.06150475907077e-05
-0.0029413344229063,-0.000936532076390509,1.14643076110985e-05,-1.23632717030824e-05
-0.00294001119971342,-0.000936353262445525,1.21212415466312e-05,-1.19444345168969e-05
-0.00293996351599476,-0.000935840662469903,1.19491617534593e-05,-1.13341322354228e-05
-0.00294054764154837,-0.000938189085614031,1.18734921791826e-05,-1.1762507119836e-05
-0.00293972509740145,-0.000939393099510258,1.30081283612629e-05,-1.22736832887254e-05
-0.00293692367893002,-0.000939321573932265,1.51132040589269e-05,-1.24262527339839e-05
-0.00293512361855052,-0.000941288527327092,1.7343174994454e-05,-1.35160661436547e-05
-0.00293300169307004,-0.000945532378288053,1.98543604732184e-05,-1.60794291310235e-05
-0.00293018835366895,-0.000948309954900143,2.26029778587429e-05,-1.89351863274004e-05
-0.00292984264670865,-0.000951600131487854,2.29892112767332e-05,-2.2052875940896e-05
-0.00293561237666681,-0.000958406982326924,1.76618799314108e-05,-2.75949761568663e-05
-0.00294584053431991,-0.000967764912114436,7.41071439387381e-06,-3.62262486335292e-05
-0.00295628326870699,-0.000976491032629671,-2.51324194909657e-06,-4.47976503502324e-05
-0.00296236294283646,-0.000981724320752878,-8.348986092251e-06,-4.968387114825e-05
-0.00296537893804186,-0.000983130990453421,-1.16005967142271e-05,-5.01627212311456e-05
-0.00297005194247079,-0.000980472623137988,-1.51761580268423e-05,-4.66274170931488e-05
-0.00297317522604318,-0.000971543846818438,-1.84534798606164e-05,-3.83397252424775e-05
-0.0029741050585571,-0.00096045738222941,-1.89172234686734e-05,-2.58007257644778e-05
-0.00297203081679528,-0.000947547015401543,-1.66011560489925e-05,-1.27236020089274e-05
-0.00296958702621383,-0.000937080439155128,-1.34735283535606e-05,-2.00561872774319e-06
-0.00296585577522849,-0.000927579458211628,-9.63538109390985e-06,8.36842914114649e-06
-0.00296065824989428,-0.000914299542564126,-3.8691177237625e-06,2.15452986171303e-05
-0.00295486467807678,-0.000901103073424284,2.367504374158e-06,3.54038946432114e-05
-0.00295214670611302,-0.00089316373426698,5.33187112086995e-06,4.42094659968013e-05
-0.00295399445021119,-0.000890958362278841,4.12276183280998e-06,4.60031021740014e-05
-0.00295665281752663,-0.000893700176101933,2.16530306540256e-06,4.4153976050739e-05
-0.00295625942684766,-0.000896489673643689,2.33513301044037e-06,4.17511832203787e-05
-0.00295616405941034,-0.00089997058510605,3.36997354804763e-06,3.87498359225768e-05
-0.00295765417561854,-0.000904059463981358,2.67674866856414e-06,3.50956482961028e-05
-0.002959954915044,-0.000906455570844148,2.61141320864441e-07,3.22520774538222e-05
-0.00296268480793743,-0.000910544449719456,-2.07176873832344e-06,3.01216852958351e-05
-0.00296540277990119,-0.00091437106814212,-3.48464317906595e-06,2.61291845648345e-05
-0.00296576040779116,-0.000920498425990249,-3.95525240265874e-06,1.92873873043518e-05
-0.00296500938922223,-0.000929379518591137,-2.86772823975054e-06,1.22831237721167e-05
-0.00296287554281208,-0.000934457834628691,-7.63484195301881e-08,7.7507929939653e-06
-0.00296134966381488,-0.000936400946164187,2.5114977665489e-06,5.13214016254691e-06
-0.00296070593361294,-0.000939285811143268,2.65626389574306e-06,3.03678024984844e-06
-0.00296325701256138,-0.000941574629639067,7.60432211527847e-07,2.06932325701156e-06
-0.00296595114266581,-0.00094039445760217,-7.43665873537921e-07,2.93979312407136e-06
-0.00296578424965049,-0.000940203722727521,-7.92810162625332e-07,3.74053391300577e-06
-0.00296589153801748,-0.000942659434238638,-7.2911350857793e-07,1.69996643292334e-06
-0.0029680015425683,-0.000948119220025493,-1.90830622170233e-06,-3.23727246777156e-06
-0.0029706003052354,-0.000954341945310947,-3.91363810540124e-06,-8.38166623600337e-06
-0.00297167318890531,-0.00095670228938474,-5.47566628674349e-06,-1.12240718170281e-05
-0.00297281759815321,-0.000957357940516349,-5.809268398887e-06,-1.14007076280007e-05
-0.00297232884003692,-0.000958252010241271,-4.641177899522e-06,-1.07558603433677e-05
-0.00296969431458082,-0.000959229526473852,-2.16612303946858e-06,-1.21524873104637e-05
-0.00296725052399936,-0.000963878689043444,4.423092932538e-07,-1.67251592267393e-05
-0.00296683329146107,-0.000969982205032241,1.55894068974118e-06,-2.1467728821069e-05
-0.002967655835608,-0.000969612656212607,9.10428109476602e-07,-2.13242833375209e-05
-0.00296826380302094,-0.000963258800700831,3.98220055073644e-08,-1.48584380582688e-05
-0.00296885984950422,-0.000955724773152159,1.64774072614273e-07,-6.08833388088596e-06
-0.00296877640299656,-0.000948429164196799,3.12022378251416e-07,7.01578372189782e-07
-0.00297006386340045,-0.00094259982959031,-1.25173385337139e-06,6.19128736105458e-06
-0.00297347324928482,-0.000936412867093853,-4.04651745268351e-06,1.43087355681571e-05
-0.00297470110504038,-0.000923264081672673,-5.28568386626399e-06,2.68142819417592e-05
-0.00297238844468525,-0.000907111221975757,-3.28964203399269e-06,4.1695691358326e-05
-0.00296922939832386,-0.000894522720248861,1.28277956451496e-07,5.60089119102103e-05
-0.00296784657048265,-0.000882530265005247,1.8524388173482e-06,6.81899507855912e-05
-0.00296760815188933,-0.00087184911202485,1.53749166821134e-06,7.76990785513656e-05
-0.00296704786819505,-0.000865376047216418,1.99945772141182e-06,8.37752071775376e-05
-0.00296419876600497,-0.000865542940231737,5.28918396407786e-06,8.46006072146153e-05
-0.00295928734298273,-0.000872540525945456,9.84483808381954e-06,7.73575559374962e-05
-0.00295609253383234,-0.000888466887978726,1.25176579895365e-05,6.01855880137112e-05
-0.0029565932128783,-0.000913012082160239,1.23194480089331e-05,3.50826870614501e-05
-0.00295786875235252,-0.000940573271547155,1.07708006564072e-05,8.00403220671429e-06
-0.00295897739881142,-0.000963473377434813,9.26469086724042e-06,-1.50707332218032e-05
-0.00296031254293397,-0.000978553353461823,7.81583198568322e-06,-3.20175553270571e-05
-0.0029615523196192,-0.000990378915690119,6.20532805991371e-06,-4.46604189396532e-05
-0.00296305435675707,-0.00100265747324571,4.51051886077538e-06,-5.63479851326836e-05
-0.00296511667758922,-0.00101526981683194,2.1760790832247e-06,-6.96495065418559e-05
-0.00296852606347359,-0.00102785831855883,-1.73397738976483e-06,-8.45922701379122e-05
-0.00297313946325418,-0.00104060179237138,-6.68482005766964e-06,-9.83020653998401e-05
-0.0029767395840132,-0.00105115181512545,-1.05452973340516e-05,-0.000107838586535424
-0.00297812241185441,-0.0010551930102821,-1.2153090275995e-05,-0.000113818455634848
-0.00297768133745678,-0.0010581732426985,-1.27364233495904e-05,-0.000119181487610437
-0.002979028402509,-0.00106246477737813,-1.39220858860859e-05,-0.000123808738841947
-0.00298022049547556,-0.00106176144252786,-1.55788222985888e-05,-0.00012318270326856
-0.00298037546756121,-0.00105036503376752,-1.66020803843948e-05,-0.000113912295167694
-0.00298020857454589,-0.00103266245321408,-1.65804959935072e-05,-9.79775698272074e-05
-0.00297874230019702,-0.00101292139368781,-1.5539848998466e-05,-7.96387551955635e-05
-0.00297589319800694,-0.000994479715495093,-1.32641401641338e-05,-6.08407458778938e-05
-0.00297215002609193,-0.00097360616765059,-1.0251423852066e-05,-4.20241970724784e-05
-0.00297019499362677,-0.000953197536063047,-8.24276801706893e-06,-2.45740760136435e-05
-0.00296927708204252,-0.000937449987974762,-8.19690525090683e-06,-8.96478688571099e-06
-0.00296913403088653,-0.000921273286418515,-8.54531966926153e-06,7.45407636367563e-06
-0.00296719091935104,-0.00089795594799256,-7.00763858729832e-06,2.69856226523162e-05
-0.00296325701256138,-0.000876712851328424,-3.40373300804327e-06,4.72142312656188e-05
-0.00295836943139848,-0.000860142759093211,8.211348458641e-07,6.37521946570128e-05
-0.00295368450603989,-0.000845718434197809,4.87118764516185e-06,7.6099763400549e-05
-0.00294992941319522,-0.00083411936963316,8.46681143412248e-06,8.6686791617091e-05
-0.00294753330633243,-0.000823962737558051,1.03418988400692e-05,9.49857173412356e-05
-0.00294805782723771,-0.000820601035392346,9.38964647799386e-06,9.74436875080511e-05
-0.00294945257600859,-0.000824201156151364,7.08496737186164e-06,9.36754432849864e-05
-0.00295044201317084,-0.000827658225754394,6.26696412967735e-06,8.80286145504359e-05
-0.00294911878997795,-0.000831008006990433,7.29689728313101e-06,8.34680021482464e-05
-0.0029474737016841,-0.000836420109058625,7.81592035756836e-06,7.78683109259309e-05
-0.00294839161326835,-0.000844800522613556,6.77186770394253e-06,6.84507149122403e-05
-0.00294924992020428,-0.000855743936046596,6.17803120070905e-06,5.65693880600594e-05
-0.00294662731567784,-0.000865447572794412,7.84069841458237e-06,4.55921906158032e-05
-0.00294350403210545,-0.000874280981676637,1.05863204266603e-05,3.66141831567487e-05
-0.00294187086474126,-0.000881445460405675,1.22135067728483e-05,2.89397800282756e-05
-0.00294132250197664,-0.000887000613629854,1.24361125285046e-05,2.28631813332624e-05
-0.00294129866011731,-0.000889611297226625,1.22940816924943e-05,1.90450648446631e-05
-0.00294101255780533,-0.000892710738939687,1.20452349446446e-05,1.59891593765914e-05
-0.00294163244614794,-0.000898671203772497,1.13150796626414e-05,1.0598220712046e-05
-0.00294257419959153,-0.000906837040593448,1.0349818554108e-05,1.23609579967106e-06
-0.00294340866466812,-0.00091850763073609,9.57774021213539e-06,-1.0992014918025e-05
-0.0029436590041911,-0.000932300146359214,8.62285197465764e-06,-2.34808159447218e-05
-0.00294512527853997,-0.000941562708709401,6.98307744507375e-06,-3.35241516126581e-05
-0.00294803398537838,-0.000947451647964218,4.92175067959035e-06,-3.91829604628562e-05
-0.00294978636203923,-0.000948214587462818,2.57827271115751e-06,-4.01131549918774e-05
-0.00295248049214366,-0.000946366843364646,-7.80967980598438e-07,-3.74290416045804e-05
-0.0029577733849152,-0.000941443499412745,-5.22213155090058e-06,-3.22052740737835e-05
-0.00296134966381488,-0.000933384950958785,-8.86929520507539e-06,-2.46909867252028e-05
-0.00296232718004746,-0.000925743635043122,-9.97304716917354e-06,-1.54164668977366e-05
-0.00296176689635318,-0.000916266495958954,-9.59898451474601e-06,-5.98927873644072e-06
-0.0029626252032891,-0.000907957607982016,-1.02644649773657e-05,2.13257320203927e-06
-0.00296522396595621,-0.000903260761693761,-1.21234970896416e-05,8.89765316061319e-06
-0.00296525972874521,-0.00089700227361931,-1.25595339673412e-05,1.49189245833003e-05
-0.00296226757539913,-0.000891661697129112,-9.87918003180177e-06,2.02418016369735e-05
-0.00295897739881142,-0.000889384799562979,-5.58727549584078e-06,2.44745881955993e-05
-0.00295569914315338,-0.000886809878755204,-2.30627041591082e-06,2.71296563671675e-05
-0.00295443552460882,-0.00088769202755046,-8.94361548880394e-07,2.71364809945422e-05
-0.00295366066418056,-0.000891494804113794,-4.58392562911396e-07,2.34152676627936e-05
-0.00295432823624183,-0.000898969227014138,-3.41271679177288e-08,1.72371724378749e-05
-0.00295349377116524,-0.000904822403479958,7.08002049346229e-07,1.27317463812492e-05
-0.00295301693397861,-0.000904071384911024,1.55099742168498e-06,1.31010311230708e-05
-0.00295285004096329,-0.000900876575760637,1.58307813067905e-06,1.6834173956067e-05
-0.00295521038503709,-0.000900220924629028,-3.47990159813768e-07,1.93768068706071e-05
-0.00296009796619999,-0.000902056747797534,-4.08572752148366e-06,1.80626609602839e-05
-0.00296273249165609,-0.000906038338305851,-7.56459174510046e-06,1.34317501136434e-05
-0.00296431797530162,-0.000914859826258411,-8.61679584610294e-06,6.05650305735419e-06
-0.00296340006371737,-0.00092732911868865,-6.91112130516813e-06,-5.0196801225184e-06
-0.00295978802202869,-0.000941085871522777,-3.26481854528068e-06,-1.94925104892877e-05
-0.00295492428272511,-0.000956487712650759,2.21379759935741e-06,-3.38293776388379e-05
-0.00294656771102951,-0.000967478809802461,9.75905032704761e-06,-4.44562255542496e-05
-0.00293995159506509,-0.000975501595467424,1.79836865230572e-05,-5.1961520919807e-05
-0.00293403881395094,-0.000984084664826671,2.42208910532979e-05,-5.9811550224795e-05
-0.00292974727927132,-0.000992882310919899,2.74327509001764e-05,-6.89585383080249e-05
-0.00292962806997466,-0.00100020176173459,2.89867621665684e-05,-7.58753409458846e-05
-0.002929616149045,-0.0010020375849031,2.93003713100292e-05,-7.67302013194638e-05
-0.00293325203259301,-0.000996899664217213,2.53965776046277e-05,-7.20415688191e-05
-0.00294507759482131,-0.000991082250540391,1.41047278864548e-05,-6.61544864782274e-05
-0.00296218412889148,-0.000988650380888604,-2.82998554350449e-06,-6.29457472464615e-05
-0.00297883766763435,-0.000987315236766054,-1.90708799354802e-05,-6.27312246339079e-05
-0.00298901814156879,-0.000988495408802951,-2.92280032216796e-05,-6.24165978975653e-05
-0.00299235600187516,-0.000983321725328071,-3.2217970964677e-05,-5.79273858084122e-05
-0.00298962610898173,-0.000972092209583056,-2.93780129322065e-05,-4.76941418484806e-05
-0.00298256891861969,-0.000960278568284426,-2.23110673065596e-05,-3.4798955774096e-05
-0.00297473686782937,-0.000949740466460017,-1.37796179949962e-05,-2.41668774063137e-05
-0.00296837109138793,-0.00094039445760217,-7.70651017734049e-06,-1.58804109876191e-05
-0.0029661299566108,-0.000926911886150353,-5.6062946532089e-06,-3.03220019793305e-06
-0.00296617764032946,-0.000904345566293333,-4.74330838850124e-06,2.04260896286558e-05
-0.00296331661720971,-0.000874865107230252,-2.48134954514562e-06,5.01137891203865e-05
-0.00296221989168047,-0.000849568894479805,-9.51276034166715e-07,7.33509156873227e-05
-0.00296511667758922,-0.000840830853034905,-4.10254320558901e-06,8.1989578708353e-05
-0.00297209042144361,-0.000844502499371916,-1.08955107740281e-05,7.98961503303404e-05
-0.00297682303052086,-0.000846827080656712,-1.5223468606802e-05,7.61792729090824e-05
-0.00297383087717479,-0.000846672108571059,-1.31273653398106e-05,7.47011060462545e-05
-0.00296825188209128,-0.000848925164277861,-6.84837766098443e-06,7.3386703482687e-05
-0.00296194571029816,-0.00085206036877992,-7.75704129876638e-07,7.07034451628335e-05
-0.0029573919151659,-0.000853371671043138,3.54625609660408e-06,6.77675623302674e-05
-0.00295412558043752,-0.000855684331398268,6.88703617512404e-06,6.47103924463965e-05
-0.00295106190151345,-0.000861609033442082,9.64087826431105e-06,5.96140452951915e-05
-0.00294920223648561,-0.000868988088905101,1.17990786542633e-05,5.2023275541103e-05
-0.00294663923660751,-0.000875556521150858,1.36036118479903e-05,4.41896214424116e-05
-0.00294624584592854,-0.000881862692943972,1.42902695289944e-05,3.76732413253297e-05
-0.00294821279932337,-0.000888609939134713,1.2060159450631e-05,3.13668518961419e-05
-0.00295273083166664,-0.000895571762059436,7.28867561462866e-06,2.39392008940407e-05
-0.00295580643152037,-0.000903272682623427,3.75687466834181e-06,1.56587923736831e-05
-0.00295569914315338,-0.000912177617083646,4.10564378951874e-06,6.51103160560866e-06
-0.00295382755719587,-0.000923836286296623,5.68234962699775e-06,-4.97929000006821e-06
-0.00295466202227247,-0.000937867220513059,3.94140885852227e-06,-1.92238798639746e-05
-0.00296010988712966,-0.000952172336111804,-1.05012235253207e-06,-3.37877173809228e-05
-0.00296357887766235,-0.000964152870425753,-4.82338897047957e-06,-4.59547044638332e-05
-0.00296283978002308,-0.000973177014182628,-4.9592010681201e-06,-5.55112894595741e-05
-0.00296217220796181,-0.000982332288165825,-3.96393324644274e-06,-6.32982329698554e-05
-0.00296248215213312,-0.000986301957744477,-4.9926707567402e-06,-6.8658696342197e-05
-0.00296489017992557,-0.000987970887897664,-7.54805592349256e-06,-7.03684260300346e-05
-0.00296624916590745,-0.000986921846087089,-8.82707848609035e-06,-6.86735123443995e-05
-0.00296354311487336,-0.000982451497462481,-7.38891320099533e-06,-6.40792037292419e-05
-0.00296052711966795,-0.00097330814440895,-4.05371775144571e-06,-5.52989943805049e-05
-0.00295703428727593,-0.000958406982326924,-4.81889551443167e-07,-4.12312092175821e-05
-0.00295348185023557,-0.000943589266752557,1.8768194993104e-06,-2.45178165930087e-05
-0.00295295732933028,-0.000928723867459528,2.31908623528035e-06,-1.01579434410053e-05
-0.00295389908277387,-0.000917220170332203,1.42484868890489e-06,-8.39577164007001e-08
-0.0029543401571715,-0.000910759026453437,5.80705045346267e-07,8.4287846590241e-06
-0.00295368450603989,-0.000900638157167325,4.82557929026743e-07,1.813498957945e-05
-0.00295356529674323,-0.000890243106498903,6.82784282483681e-07,2.78816846729601e-05
-0.00295310038048627,-0.000884413771892415,7.3395116055375e-07,3.46842459474121e-05
-0.00295286196189296,-0.000881028227867378,7.91916440686333e-07,3.79530044933515e-05
-0.00295244472935466,-0.000879073195402217,8.33654554042819e-07,3.97477141001816e-05
-0.002952397045636,-0.00087789302336532,3.9931731584338e-07,4.17086745428007e-05
-0.00295335072000925,-0.00087549691650253,-4.49208297090869e-07,4.35894363429654e-05
-0.00295325535257193,-0.000874757818863262,-9.62559254462584e-07,4.4667198940883e-05
-0.00295370834789922,-0.000874877028159918,-9.28995315119643e-07,4.5021553935525e-05
-0.002952361282847,-0.000874614767707274,-9.61319945424779e-07,4.4952121798728e-05
-0.0029528142781743,-0.000875842623462833,-1.10203563433943e-06,4.40558928591228e-05
-0.00295292156654129,-0.000878667883793585,-4.53340675525967e-07,4.14262183298204e-05
-0.00294990557133589,-0.000883626990534484,1.01679873385384e-06,3.63187105021194e-05
-0.00294936912950093,-0.000892114692456406,1.62209153730724e-06,2.83037738155681e-05
-0.00295133608289576,-0.000903058105889446,1.78132131015765e-07,1.72757326528048e-05
-0.00295321958978293,-0.000916338021536948,-1.81927348421614e-06,3.97086517184741e-06
-0.00295206325960536,-0.000930059011582077,-1.67719427600873e-06,-9.62376367690085e-06
-0.00294998901784355,-0.000942337569137667,1.15389929731649e-06,-2.12055369570648e-05
-0.00294626968778787,-0.000950479564099286,4.36593743132422e-06,-3.01939627897038e-05
-0.00294592398082757,-0.000959265289262848,5.32106521212987e-06,-3.86144457417455e-05
-0.00294739025517644,-0.000970542488726526,3.51326305085387e-06,-4.90345648656168e-05
-0.00294929760392294,-0.000981724320752878,7.37841326353114e-07,-6.11683871489247e-05
-0.00295193212937904,-0.000992190896999293,-4.60863765367618e-07,-7.11859491254612e-05
-0.00295035856666318,-0.000996673166553567,1.21231408078854e-06,-7.52036376881913e-05
-0.00294574516688258,-0.000994253217831446,4.56875159212948e-06,-7.31742454302739e-05
-0.00294427889253371,-0.000989759027347507,6.82945988980109e-06,-6.84262332305419e-05
-0.00294567364130459,-0.000985109864777914,6.32676193339959e-06,-6.34635438757106e-05
-0.00294765251562908,-0.000978851376703464,4.05085910345968e-06,-5.74327117829501e-05
-0.0029493095248526,-0.000970053730610235,2.05584499759825e-06,-4.82452551121352e-05
-0.00295066851083449,-0.000957989749788627,1.03235474513996e-06,-3.60671458333025e-05
-0.00295296925025995,-0.000945591982936381,3.79344916724941e-07,-2.34823393595036e-05
-0.00295230167819868,-0.000934577043925347,-4.45191436523413e-08,-1.26358323165712e-05
-0.00295232552005801,-0.000926315839667072,2.32658071187155e-07,-3.57335011117713e-06
-0.00295262354329965,-0.000918304974931775,8.78669913386552e-07,4.42769460144967e-06
-0.00295324343164226,-0.000911164338062068,8.04102977725966e-07,1.12445171682905e-05
-0.00295423286880451,-0.000907182747553751,-9.5467594897902e-08,1.65418096730279e-05
-0.00295474546878013,-0.000902187878023855,-7.69381619897371e-07,2.11171160053175e-05
-0.00295637863614432,-0.000897407585227941,-1.13113127005378e-06,2.61313134738488e-05
-0.00295872705928845,-0.000893509441227283,-2.74783623734424e-06,3.1024154269715e-05
-0.00296206491959482,-0.000890648418107534,-6.30912561632812e-06,3.37149970716247e-05
-0.00296573656593183,-0.00089114909715349,-9.76025598573634e-06,3.37178592560109e-05
-0.00296833532859894,-0.000891375594817137,-1.0566708634557e-05,3.39286742121968e-05
-0.00296680944960174,-0.000888502650767723,-9.04120657674619e-06,3.76919309896209e-05
-0.0029653670171122,-0.000881898455732969,-7.68640661796554e-06,4.41578776481768e-05
-0.0029668928961094,-0.000878369860551945,-7.64173555294736e-06,4.81249727456401e-05
-0.00296711939377304,-0.000882577948723909,-7.64429971109065e-06,4.5423221359207e-05
-0.00296666639844575,-0.000890004687905591,-6.50451257350459e-06,3.78413912896413e-05
-0.00296543854269019,-0.000896120124824054,-4.5972273535172e-06,3.19169867887124e-05
-0.00296373384974801,-0.000896382385276698,-2.32515990188966e-06,3.29594223581782e-05
-0.00296114700801057,-0.000889825873960607,9.29858262008374e-07,4.0458219989855e-05
-0.00295823830117215,-0.000881278567390356,5.09890222651449e-06,4.87127945179088e-05
-0.00295479315249879,-0.000879502348870179,8.26210099356489e-06,5.13072010421276e-05
-0.00295555609199739,-0.000886547618302561,8.88926247171356e-06,4.55659435978459e-05
-0.00295690315704961,-0.000898850017717482,8.2838141802084e-06,3.39970399995951e-05
-0.00295628326870699,-0.000910461003211796,9.10339982250013e-06,2.20252931457698e-05
-0.00295459049669448,-0.000919866616717971,1.20937200626516e-05,1.39493321128044e-05
-0.00295110958523211,-0.000924480016498567,1.59529997899172e-05,1.05400338282563e-05
-0.00294779556678507,-0.000925147588559841,1.9798542281207e-05,1.00607344920813e-05
-0.00294520872504763,-0.000924718435091879,2.36366635195366e-05,1.08628924879849e-05
-0.0029428603019035,-0.00092406278396027,2.64666114591711e-05,1.23666114661387e-05
-0.00294315832514514,-0.000924134309538264,2.62108033791216e-05,1.38065506269641e-05
-0.00294882076673631,-0.000924480016498567,2.22378573860983e-05,1.30671253224578e-05
-0.00295494812458444,-0.000930821951080677,1.62246642116133e-05,7.6339277009116e-06
-0.00296213644517281,-0.00094211107147402,9.82228435799385e-06,-3.00578950238981e-06
-0.00296883600764489,-0.00095583206151915,3.14357834540012e-06,-1.60820247687801e-05
-0.00297756212816013,-0.000968074856285742,-3.68066985370325e-06,-2.72412402390926e-05
-0.00298271196977567,-0.000974249897852534,-9.35373522433005e-06,-3.41306439429847e-05
-0.00298724192304861,-0.00097907787436711,-1.31246927881847e-05,-3.81638528801557e-05
-0.00299096125310428,-0.000984859525254936,-1.601714995075e-05,-4.21809104050349e-05
-0.00299431103434032,-0.000988924562270913,-1.88206665460698e-05,-4.68094719279857e-05
-0.00299601572728251,-0.000991809427249993,-2.03219596058823e-05,-5.04464329003023e-05
-0.00299526470871357,-0.000995922147984633,-1.92999696135638e-05,-5.26600572538123e-05
-0.00299402493202835,-0.000999200403642678,-1.69426519698942e-05,-5.53380862733624e-05
-0.00299237984373449,-0.00100189453374711,-1.52010998516093e-05,-5.92609427572476e-05
-0.00299083012287796,-0.0010046005847812,-1.39060500941843e-05,-6.15684913479106e-05
-0.00298999565780137,-0.00100274091975337,-1.19906421068257e-05,-5.88953081281002e-05
-0.00298914927179511,-0.000996339380522929,-1.0633697290309e-05,-5.18816334069223e-05
-0.00298975723920806,-0.000987076818172742,-1.19939204276298e-05,-4.40663504552754e-05
-0.00299333351810774,-0.000979936181303035,-1.48155756457867e-05,-3.68929574175791e-05
-0.00299392956459102,-0.000973033963026641,-1.46416353692191e-05,-2.85204774501048e-05
-0.00298812407184387,-0.000961172638009348,-9.51098655493361e-06,-1.7512801453952e-05
-0.00298144835123112,-0.000947427806104887,-2.69705072730382e-06,-4.80864833135036e-06
-0.00297765749559745,-0.000934648569503341,1.74407219879831e-06,8.50531025042344e-06
-0.0029755951747653,-0.00092079644923189,3.71655096807931e-06,2.23549794454113e-05
-0.0029733421190585,-0.000907659584740375,5.40082539870064e-06,3.52370198419277e-05
-0.00297224539352926,-0.00089852815261651,6.98491345362275e-06,4.3343884444657e-05
-0.00297248381212257,-0.000897252613142288,6.88476793649069e-06,4.43096425535242e-05
-0.00297349709114415,-0.00090179448734489,5.16270584220835e-06,4.00344350486253e-05
-0.00297507065386001,-0.00090802913356001,3.81389507445102e-06,3.37773151505856e-05
-0.00297516602129734,-0.000913572365854523,3.60245570204877e-06,2.61336472750613e-05
-0.00297561901662463,-0.000923740918859298,2.94978688076305e-06,1.61633854237841e-05
-0.0029774309979338,-0.000935566481087594,5.36553930048172e-07,4.95973726139967e-06
-0.00298101919776316,-0.000944030341150185,-2.74392978447691e-06,-4.84534988615473e-06
-0.00298297423022832,-0.000950479564099286,-5.18406417682239e-06,-1.25560299487809e-05
-0.00298341530462595,-0.000957739410265649,-6.30345415858737e-06,-1.96604157326874e-05
-0.00298388022088291,-0.000964593944823381,-6.6449284914282e-06,-2.65956580683079e-05
-0.0029835345139226,-0.000968921242292001,-6.44618594169611e-06,-3.16415071036926e-05
-0.00298123377449714,-0.000969135819025982,-5.44436887743809e-06,-3.34283303871201e-05
-0.00297982710479659,-0.000968086777215408,-3.65482700744132e-06,-3.26343265046951e-05
-0.00297757404908979,-0.000967133102842158,-1.73192029188463e-06,-3.06884350403115e-05
-0.00297544020267965,-0.000962972698388856,-6.0329479530825e-07,-2.82080716649856e-05
-0.00297530907245332,-0.000957906303280968,-8.30169754680524e-07,-2.48823663796404e-05
-0.00297662037471654,-0.000953400191867363,-2.01976449527998e-06,-1.94585247945102e-05
-0.00297657269099788,-0.000944221076024835,-2.83133460935052e-06,-9.88694567034685e-06
-0.00297476070968871,-0.000927400644266644,-2.02172109766795e-06,4.68428368793971e-06
-0.0029729606493092,-0.00090947156604955,3.12592927560176e-07,2.1621526466555e-05
-0.00296931284483152,-0.000896561199221682,2.80863460697103e-06,3.6032699692851e-05
-0.00296757238910034,-0.000887095981067179,4.22221646050186e-06,4.48065475460251e-05
-0.0029664756635711,-0.000881457381335341,4.47562099184244e-06,4.8388823474855e-05
-0.00296683329146107,-0.000881362013898016,4.34529966342338e-06,4.8702221694822e-05
-0.00296582001243949,-0.000883507781237828,4.44235997318351e-06,4.69929532220129e-05
-0.00296466368226192,-0.000886309199709248,4.54832026941275e-06,4.39232235172004e-05
-0.00296591537987681,-0.000888216548455748,3.79923686195429e-06,4.00891321387572e-05
-0.00296709555191371,-0.00089210277152674,1.74085131681024e-06,3.61127317969613e-05
-0.00296845453789559,-0.000896346622487701,-5.28964888658261e-07,3.37156488350217e-05
-0.00296852606347359,-0.000891399436676468,-7.11921998232536e-07,3.63966926273608e-05
-0.00296503323108156,-0.000880646758118079,2.50055131002051e-06,4.63233136702574e-05
-0.00295909660810808,-0.000868308595914161,7.73921472593324e-06,5.97450994547264e-05
-0.00295403021300019,-0.000859820893992239,1.21066598320105e-05,6.8183498473453e-05
-0.00295209902239436,-0.000860238126530536,1.38612458990129e-05,6.60348843242927e-05
-0.00295254009679199,-0.000871300749260232,1.32619698614418e-05,5.55241332982761e-05
-0.00295394676649253,-0.000883579306815821,1.10685149800775e-05,4.30482414955622e-05
-0.00295673626403429,-0.000893640571453605,7.50084105089768e-06,3.26184062770841e-05
-0.00296161192426753,-0.000901877933852549,3.06755568160785e-06,2.43174196601681e-05
-0.00296466368226192,-0.000908529812605966,-6.78852171047799e-07,1.68254624628039e-05
-0.00296537893804186,-0.000916552598270929,-2.08137277749952e-06,8.81261357004101e-06
-0.00296359079859202,-0.00092656617919005,-7.14448505779623e-07,-9.43073900209284e-07
-0.00296086090569859,-0.000937390383326434,2.56660783980625e-06,-1.2336329335991e-05
-0.00295574682687204,-0.000947403964245556,6.41115471009672e-06,-2.3329430922579e-05
-0.00295238512470634,-0.000956463870791427,9.60421333643613e-06,-3.21809204299183e-05
-0.00295044201317084,-0.000964367447159734,1.1705760137333e-05,-3.93239814197716e-05
-0.00294773596213674,-0.000968599377191029,1.34955243358263e-05,-4.55511696653838e-05
-0.00294564979944526,-0.000973355828127612,1.59768373758807e-05,-5.00863233639945e-05
-0.00294240730657621,-0.000976336060544017,1.83723344793871e-05,-5.29066191414758e-05
-0.00294246691122454,-0.000980091153388688,1.79859718032824e-05,-5.72855606598691e-05
-0.00294791477608173,-0.000988829194833588,1.29178895119721e-05,-6.63647241733283e-05
-0.00295606869197301,-0.000999283850150338,4.23261233167644e-06,-7.76119673217224e-05
-0.00296497362643323,-0.00100588804518509,-5.43139657393896e-06,-8.44137389131247e-05
-0.00297433155622074,-0.00100575691495877,-1.45727915073422e-05,-8.38503573959414e-05
-0.002982807337213,-0.00100041633846857,-2.2885483834967e-05,-7.97540817147631e-05
-0.0029885293834525,-0.000996565878186576,-2.93177794991853e-05,-7.69744536217357e-05
-0.00299044865312866,-0.000995659887531989,-3.19371433358467e-05,-7.53949010472204e-05
-0.0029892207973731,-0.000991177617977715,-2.99605663597307e-05,-7.11194121354661e-05
-0.00298358219764126,-0.00098003154874036,-2.45720059969754e-05,-6.13301001827999e-05
-0.00297535675617199,-0.000963974056480769,-1.74827845477886e-05,-4.640284211771e-05
-0.00296821611930228,-0.000947809275854187,-9.9610080685386e-06,-2.91440263771497e-05
-0.00296182650100151,-0.000931894834750583,-3.4747394431146e-06,-1.35722173395203e-05
-0.00295753496632188,-0.000918877179555725,4.16270393231195e-07,-2.79260088712087e-06
-0.00295536535712274,-0.000912106091505652,1.75406213166805e-06,3.69849037625079e-06
-0.00295528191061508,-0.000907826477755694,2.4701682811403e-06,9.47582576053673e-06
-0.00295352953395423,-0.000899040752592132,3.81124506833983e-06,1.66686633078824e-05
-0.00295246857121399,-0.000890517287881213,4.44476746359032e-06,2.32872070282152e-05
-0.00295444744553849,-0.00088845496704906,2.38499800422356e-06,2.62411519859095e-05
-0.00295856016627313,-0.0008895159297893,-1.95961176980019e-06,2.53242430203772e-05
-0.00296251791492211,-0.000891196780872153,-6.05413958069508e-06,2.2641688686192e-05
-0.00296448486831694,-0.000891661697129112,-8.04297329433658e-06,2.00617554681787e-05
-0.00296348351022503,-0.000893569045875612,-7.84273870241567e-06,1.96324814590194e-05
-0.00296174305449385,-0.000888598018205048,-5.7813175580836e-06,2.47191271831411e-05
-0.00295745151981422,-0.000874030642153659,-1.87029489877533e-06,3.70537940537207e-05
-0.00295230167819868,-0.000858175805698383,3.32038368207904e-06,5.27917241838338e-05
-0.00294612663663188,-0.000846946289953368,8.54024241788411e-06,6.47683361853252e-05
-0.0029420973624049,-0.000841665318111498,1.30951814548405e-05,6.94418359759097e-05
-0.00293786543237361,-0.000840902378612898,1.69665089384517e-05,6.9185562158752e-05
-0.00293508785576152,-0.000842654755273745,1.92864726826965e-05,6.7245704107618e-05
-0.00293594616269744,-0.000846636345782062,1.82734296881503e-05,6.34684914597289e-05
-0.00294034498574406,-0.000853347829183807,1.37517169937096e-05,5.66008251429937e-05
-0.00294537561806295,-0.000861585191582751,8.44547889889069e-06,4.81208049841272e-05
-0.00294867771558033,-0.000867116502947599,5.23835998093962e-06,4.10130994967204e-05
-0.00294907110625929,-0.000873696856123022,3.85585069807874e-06,3.59712927305564e-05
-0.0029515983433484,-0.00087857251635626,1.77982431433408e-06,3.13893013036523e-05
-0.00295518654317776,-0.000880920939500388,-2.01922513446096e-06,2.66315929975576e-05
-0.00295876282207744,-0.000885880046241286,-5.95385961193547e-06,2.29310941636791e-05
-0.00296058672431628,-0.000888478808908391,-8.32761742544738e-06,2.09177222536104e-05
-0.00296158808240819,-0.000889265590266322,-9.17820197250017e-06,1.93322504971516e-05
-0.00296200531494649,-0.000891101413434828,-9.18519905099316e-06,1.68539837058223e-05
-0.00296003836155166,-0.000895345264395789,-8.43445099455677e-06,1.37282588708583e-05
-0.00295872705928845,-0.000897693687539916,-7.25933210689044e-06,1.08868380432353e-05
-0.00295947807785738,-0.000900101715332372,-7.00219160481255e-06,8.60833160316031e-06
-0.00295996683597367,-0.000901937538500877,-8.557619493289e-06,6.69708854725391e-06
-0.00296177881728284,-0.000903523022146405,-1.07845743284145e-05,4.97628039352576e-06
-0.00296317356605372,-0.00090612178481351,-1.15299168358282e-05,2.94544323760064e-06
-0.00296111124522157,-0.000909221226526572,-9.86673457993679e-06,-2.05297985464692e-07
-0.00295748728260322,-0.000913322026331545,-6.48007294606127e-06,-4.76720205183254e-06
-0.00295348185023557,-0.000919830853928974,-2.48853094588229e-06,-1.06821889077149e-05
-0.00294989365040622,-0.000928187425624575,9.63557865468514e-07,-1.88763089757945e-05
-0.00294860619000233,-0.000939750727400227,2.54090598228346e-06,-3.07853464909014e-05
-0.00294878500394732,-0.000954556522044928,1.74002393345246e-06,-4.53840511259034e-05
-0.00295104998058379,-0.000968110619074739,5.56973741958915e-08,-5.81641459765129e-05
-0.0029509069294278,-0.000973534642072597,-3.03658607130692e-07,-6.49721731558017e-05
-0.00294967907367224,-0.000976109562880371,9.40788910644288e-07,-6.62741458321969e-05
-0.0029493452876416,-0.000976264534966024,2.03638593904869e-06,-6.60893134809815e-05
-0.00294863003186166,-0.000976276455895689,1.84603854663095e-06,-6.73590942594907e-05
-0.00294946449693826,-0.000979328213890088,1.1220805591383e-06,-6.99527824668961e-05
-0.00295074003641248,-0.000982952176508437,8.76238157332433e-07,-7.23354513755432e-05
-0.00294955986437558,-0.000982630311407465,1.22156479303445e-06,-7.29215706480079e-05
-0.00294845121791668,-0.000979125558085773,2.44785978547441e-06,-7.02602666111338e-05
-0.00294628160871754,-0.00097494131177314,5.22911119379077e-06,-6.45325056110627e-05
-0.00294287222283317,-0.000969052372518323,8.47570414562405e-06,-5.88381977430908e-05
-0.00294240730657621,-0.000965392647110977,9.00749266501958e-06,-5.59741760839073e-05
-0.00294619816220988,-0.000962960777459191,5.55226549501855e-06,-5.32616967646471e-05
-0.00295008438528087,-0.000953865108124322,1.6721421473262e-06,-4.38149030107991e-05
-0.0029497625201799,-0.000934779699729663,2.12062316591472e-06,-2.46755695481297e-05
-0.00294528025062563,-0.000910592133438118,7.13075217456706e-06,-9.7442911412938e-07
-0.00293916481370716,-0.000889742427452947,1.3170779353215e-05,2.01362616867792e-05
-0.00293347853025666,-0.0008724213166488,1.88214118156847e-05,3.71341347802397e-05
-0.00292682665150324,-0.00085763936386343,2.60769811928444e-05,5.28169285963735e-05
-0.00291843431701865,-0.000842297127383776,3.47838190780543e-05,6.74035048871187e-05
-0.00291354673585574,-0.000832605411565626,3.9528581589201e-05,7.68809601878789e-05
-0.00291843431701865,-0.00083199744415268,3.49313281966599e-05,7.80260852603602e-05
-0.00293113010711253,-0.000838267853156796,2.20760922166125e-05,7.19548622528228e-05
-0.00294830816676069,-0.000847816517818959,6.93823470613564e-06,6.22630291722532e-05
-0.00295935886856072,-0.000857424787129449,-6.25312769009755e-06,5.19545697903865e-05
-0.00297113674707036,-0.000867724470360545,-1.72366202334716e-05,4.25319736241883e-05
-0.00298203247678473,-0.000876879744343742,-2.62472961137965e-05,3.39552268511003e-05
-0.002986586271917,-0.00088499789744603,-3.19104611261354e-05,2.4871931625122e-05
-0.00298755186721992,-0.00089564328763743,-3.33694773717105e-05,1.44710949375739e-05
-0.00298746842071226,-0.000906276756899163,-3.18518083036362e-05,4.43105635745617e-06
-0.00298500078827147,-0.00091369157515118,-2.8780860185375e-05,-2.44858258908931e-06
-0.00297935026760997,-0.00091638570525561,-2.41582170869238e-05,-5.62597356787034e-06
-0.00297359245858147,-0.000917565877292506,-1.81159980402708e-05,-7.21300335763677e-06
-0.00296903866344921,-0.00092117791898119,-1.24466402407176e-05,-8.96139444690743e-06
-0.00296540277990119,-0.000922334249158755,-8.88222451588932e-06,-1.06010606685212e-05
-0.00296297091024941,-0.000922715718908055,-6.81629505393682e-06,-1.11805823641521e-05
-0.00296067017082394,-0.000922107751495108,-4.35498950675574e-06,-9.92871667242328e-06
-0.00295817869652383,-0.000918269212142778,-1.03701208681984e-06,-5.41180032029206e-06
-0.00295513885945909,-0.000909411961401222,1.99768088942886e-06,3.77257322714872e-06
-0.00295257585958098,-0.000896608882940345,4.09606686178381e-06,1.62410607156112e-05
-0.00295127647824743,-0.000886511855513564,5.69294235915157e-06,2.75432460248296e-05
-0.00295066851083449,-0.000879931502338141,6.88315118617587e-06,3.40810328845842e-05
-0.00295041817131151,-0.000878405623340942,7.03675555195551e-06,3.62443839897309e-05
-0.00295089500849813,-0.000878810934949573,6.22138900161912e-06,3.66716252254069e-05
-0.00295161026427807,-0.000878286414044286,5.56902015170339e-06,3.66088355669338e-05
-0.00295234936191734,-0.000880980544148716,5.53445210045288e-06,3.51982899643417e-05
-0.00295255201772165,-0.000885367446265664,4.99716690895011e-06,3.14916744226338e-05
-0.00295398252928153,-0.00089114909715349,3.05309389566656e-06,2.59308763950496e-05
-0.00295683163147161,-0.000896859222463323,7.9231735003861e-07,2.01057316225968e-05
-0.00295736807330656,-0.000902605110562152,1.3613565297922e-07,1.55480150580696e-05
-0.00295611637569167,-0.000906896645241776,1.37833105817265e-06,1.22586080331174e-05
-0.00295417326415618,-0.000910389477633803,2.95125705435499e-06,8.26137758163964e-06
-0.00295366066418056,-0.000917744691237491,3.38033108855457e-06,1.53394104789867e-06
-0.00295516270131842,-0.000927650983789622,2.46751505807758e-06,-7.39449942681826e-06
-0.00295614021755101,-0.000936436708953184,6.79670483396388e-07,-1.58405261132779e-05
-0.00295835751046881,-0.000943386610948241,-1.51292812624343e-06,-2.20902038707749e-05
-0.00296025293828564,-0.000947344359597227,-3.43135486362198e-06,-2.66649110913766e-05
-0.00296096819406558,-0.00095210081053381,-4.23706802395627e-06,-3.02003361125901e-05
-0.00296032446386364,-0.00095517641038754,-3.73137963471867e-06,-3.20835816605833e-05
-0.00295885818951477,-0.000954520759255931,-2.70454287700725e-06,-3.22781868653611e-05
-0.00295838135232814,-0.000955033359231553,-2.20460499445362e-06,-3.26447285473454e-05
-0.00295876282207744,-0.000958490428834583,-2.72375528967518e-06,-3.47791555759522e-05
-0.00296003836155166,-0.000962138233312263,-4.04835323773464e-06,-3.7873094719203e-05
-0.00296067017082394,-0.000963711796028125,-5.36629072180185e-06,-4.03781925353273e-05
-0.00296095627313592,-0.000966179428468908,-5.54950091569768e-06,-4.24002352692672e-05
-0.00295947807785738,-0.000969040451588658,-4.07609515674548e-06,-4.42649088783926e-05
-0.00295679586868261,-0.000968921242292001,-1.84603768060842e-06,-4.39005956643631e-05
-0.00295498388737344,-0.0009628534890922,-3.72916634415988e-07,-3.87593335164479e-05
-0.00295453089204615,-0.000954997596442556,1.80775755788463e-08,-3.04222377984971e-05
-0.00295412558043752,-0.00094959741530403,3.86572242856974e-07,-2.4190112768889e-05
-0.00295270698980731,-0.00094769006655753,1.35146742005666e-06,-2.27421978436132e-05
-0.00295169371078573,-0.00094749933168288,2.09460797294391e-06,-2.25418520410968e-05
-0.00295200365495704,-0.000942957457480279,1.72259542474749e-06,-1.85552841624895e-05
-0.00295287388282263,-0.000936234053148869,6.08281014229208e-07,-1.09370731755054e-05
-0.00295374411068822,-0.00092991596042609,-3.96478885621149e-07,-4.43589923712372e-06
-0.00295411365950785,-0.00092569595132446,-1.10082717446834e-06,-1.74752333740159e-06
-0.00295389908277387,-0.000924968774614857,-1.33554194248249e-06,-3.58378375884963e-07
-0.0029531957479236,-0.000921881253831461,-1.8902699183195e-07,3.24859474592037e-06
-0.00294990557133589,-0.00091543203088236,2.67424778053979e-06,8.75668627951991e-06
-0.00294607895291322,-0.000910878235750093,5.65162884986287e-06,1.32268996915971e-05
-0.00294555443200793,-0.000908446366098306,6.89095495951958e-06,1.54608436383022e-05
-0.00294502991110265,-0.000907290035920741,7.0035344008102e-06,1.65877295838583e-05
-0.00294344442745712,-0.000907158905694419,8.19636745225217e-06,1.68985655366749e-05
-0.00294083374386035,-0.000908148342856666,1.06542474831137e-05,1.49591148946437e-05
-0.00293964165089379,-0.000912213379872643,1.1884491334617e-05,1.05753618326244e-05
-0.00294126289732831,-0.000916969830809225,1.03679825194377e-05,6.33390226242355e-06
-0.00294299143212983,-0.000918579156314084,7.88744887045218e-06,4.83843929014282e-06
-0.00294418352509639,-0.000915467793671357,6.82355076452533e-06,5.9887957366755e-06
-0.002944839176228,-0.000914239937915798,6.58161906810692e-06,8.23737807356696e-06
-0.00294592398082757,-0.000911819989193677,4.55779993432892e-06,1.09107334137425e-05
-0.00295091885035746,-0.000907850319615025,4.28412116455852e-08,1.36753021459252e-05
-0.00295534151526341,-0.000906336361547492,-4.60171346616187e-06,1.52700078763245e-05
-0.00295727270586924,-0.000906240994110167,-6.73806034983386e-06,1.50396510737552e-05
-0.00295680778961228,-0.00090707545918676,-6.15835875023152e-06,1.48202928352434e-05
-0.00295534151526341,-0.000904369408152664,-4.71238238392416e-06,1.68958039905659e-05
-0.00295443552460882,-0.000899577194427084,-4.12775187263812e-06,2.04232641867409e-05
-0.00295516270131842,-0.0008997798502314,-4.61490722992174e-06,2.22027116077804e-05
-0.00295549648734906,-0.000899457985130428,-5.16010449491583e-06,2.10647136883698e-05
-0.00295554417106772,-0.000901138836213281,-4.83752839114549e-06,1.93407824862782e-05
-0.00295391100370353,-0.000901162678072612,-3.87536381565182e-06,1.95765450971809e-05
-0.00295377987347721,-0.000898921543295475,-3.39213251764227e-06,2.16767082770351e-05
-0.00295475738970979,-0.000896716171307335,-4.08598547895104e-06,2.39177347382365e-05
-0.00295599716639502,-0.000895142608591473,-5.51223088850767e-06,2.52020185810189e-05
-0.00295646208265198,-0.000894773059771839,-6.72687138364823e-06,2.5592187167547e-05
-0.00295814293373483,-0.000894868427209164,-7.1013265716725e-06,2.57835431208028e-05
-0.00295674818496395,-0.000894141250499561,-6.31073335271835e-06,2.65476226842543e-05
-0.00295462625948347,-0.0008921862180344,-4.31218446571719e-06,2.77413093785962e-05
-0.00295218246890202,-0.000893104129618652,-1.89076445619093e-06,2.77370424986941e-05
-0.00295131224103643,-0.000895822101582414,-4.51788095752027e-07,2.4948210552568e-05
-0.00295113342709144,-0.00090035205485535,-3.73483832864615e-07,1.99707398239697e-05
-0.00295031088294452,-0.000905513817400564,-8.35866321801128e-08,1.50530329801963e-05
-0.00294840353419802,-0.000909292752104565,2.22576571995615e-06,1.14814711035954e-05
-0.00294474380879067,-0.00091235643102863,6.25747217893668e-06,8.64243941818017e-06
-0.002941024478735,-0.00091513400764072,9.95660112733542e-06,5.38209544157848e-06
-0.00293818729747458,-0.000919592435335662,1.1996414936199e-05,9.50450230602712e-07
-0.00293806808817792,-0.000926065500144094,1.28768289002958e-05,-4.89643860970643e-06
-0.0029379727207406,-0.000932025964976905,1.3555991906269e-05,-1.10271821625474e-05
-0.0029364826045324,-0.000935423429931606,1.40480917258132e-05,-1.4742651736996e-05
-0.00293704288822668,-0.00093481546251866,1.36625705291119e-05,-1.46238099323737e-05
-0.00293958204624546,-0.000934898909026319,1.18058358333398e-05,-1.32805025143641e-05
-0.00294309872049682,-0.000936102922922547,8.18685060587016e-06,-1.50072835932833e-05
-0.00294793861794106,-0.000940454062250499,2.88287224266122e-06,-2.09533623535785e-05
-0.00295451897111648,-0.000949847754827008,-3.34700842895119e-06,-2.8918700493687e-05
-0.00296031254293397,-0.00095852619162358,-9.11890802578143e-06,-3.72531064745166e-05
-0.00296474712876958,-0.000965797958719609,-1.30652397668229e-05,-4.57759261790575e-05
-0.00296548622640885,-0.000972700176996003,-1.44472822563145e-05,-5.32478795134113e-05
-0.0029645683148246,-0.000978112279064195,-1.35131932627482e-05,-5.78869740280781e-05
-0.00296324509163172,-0.000981366692862909,-1.16420995472812e-05,-6.06470977686903e-05
-0.00296268480793743,-0.000982689916055793,-1.06443761775837e-05,-6.36695705664879e-05
-0.00296164768705652,-0.000982689916055793,-1.11616753400722e-05,-6.48249098353215e-05
-0.00296388882183366,-0.000979566632483401,-1.20426717257378e-05,-5.89322523435302e-05
-0.00296374577067767,-0.000964713154120037,-1.19856690367909e-05,-4.61835775267535e-05
-0.00296281593816375,-0.000950777587340926,-1.12641775720245e-05,-3.3824285143099e-05
-0.00296200531494649,-0.000944709834141125,-1.0801139380055e-05,-2.63530848526783e-05
-0.00296198147308716,-0.00093759303913075,-1.01515275903723e-05,-1.97399687192414e-05
-0.00295979994295835,-0.000926625783838378,-8.04260450429463e-06,-1.02055047166763e-05
-0.00295640247800365,-0.000919628198124659,-4.77855350718548e-06,-3.31613648288038e-06
-0.00295386331998487,-0.00092300182122003,-2.24075529639441e-06,-6.92438737690556e-06
-0.00295264738515898,-0.000933194216084135,-1.06539790723346e-06,-1.79329612985563e-05
-0.00295152681777041,-0.000938999708831293,4.51472901510012e-07,-2.40835201459787e-05
-0.00294806974816738,-0.000932586248671189,3.848966077366e-06,-1.84228973046281e-05
-0.00294296759027049,-0.000918221528424116,8.37079028604839e-06,-4.76665741000141e-06
-0.00293973701833111,-0.00090141301759559,1.22110800754271e-05,1.1529710893382e-05
-0.00293751972541331,-0.000882327609200931,1.45327868536123e-05,3.03311247540771e-05
-0.00293656605104006,-0.000860393098616189,1.53434665939296e-05,5.13648466285443e-05
-0.00293651836732139,-0.000841569950674173,1.48308943582907e-05,6.88581245507818e-05
-0.00293822306026358,-0.000834024002195835,1.40129983976701e-05,7.67968079954368e-05
-0.00293753164634297,-0.000833785583602523,1.45825651468409e-05,7.61372289202631e-05
-0.00293521898598784,-0.000836432029988291,1.64881202519089e-05,7.24522750275115e-05
-0.00293481367437921,-0.000839364578686033,1.68303103579249e-05,6.87684610413998e-05
-0.00293945091601914,-0.000843179276179032,1.29987946146617e-05,6.46253256566845e-05
-0.00294584053431991,-0.000847280075984006,6.10154344831205e-06,6.02241447205273e-05
-0.00295212286425369,-0.000849354317745824,-5.11336580312748e-07,5.68849995516031e-05
-0.00295759457097021,-0.000851893475764601,-5.31378244807164e-06,5.35575940266515e-05
-0.00296111124522157,-0.00085840230336203,-9.06324435119773e-06,4.68698671850133e-05
-0.002963805375326,-0.000869000009834767,-1.17951584688506e-05,3.5972830206824e-05
-0.00296391266369299,-0.000879359297714191,-1.20541606129668e-05,2.48446140571301e-05
-0.00296185034286084,-0.000884449534681412,-9.55350033428542e-06,1.79869239527754e-05
-0.00295825022210182,-0.000888240390315079,-6.29992940360716e-06,1.4995269846835e-05
-0.00295622366405866,-0.000892388873838715,-4.09532763340367e-06,1.11535280397156e-05
-0.00295445936646815,-0.000897789054977241,-2.59181011347735e-06,3.28132795640954e-06
-0.0029531599851346,-0.000907349640569069,-7.75013475732502e-07,-6.63238678614715e-06
-0.0029508354038498,-0.000916862542442235,1.0920407287072e-06,-1.4576043917158e-05
-0.00294970291553157,-0.000921237523629518,2.09374418915378e-06,-2.01578985915154e-05
-0.00295051353874883,-0.000926208551300082,2.0883435531671e-06,-2.70393688616203e-05
-0.0029501439899292,-0.000937914904231721,1.45628516142379e-06,-3.76058947537091e-05
-0.00295178907822305,-0.000950384196661961,3.1329355329344e-07,-4.9544153443129e-05
-0.00295326727350159,-0.000958085117225952,-1.09753320480248e-06,-5.90597339727195e-05
-0.0029539229246332,-0.000964784679698031,-2.03503634309781e-06,-6.55063128381655e-05
-0.00295398252928153,-0.000970363674781541,-2.18279446441397e-06,-7.07275871262959e-05
-0.00295441168274949,-0.000974536000164509,-2.25423015089446e-06,-7.53168978244232e-05
-0.00295474546878013,-0.000977683125596233,-2.86263112986275e-06,-7.80928438556784e-05
-0.00295481699435812,-0.000977182446550277,-3.45880412754287e-06,-7.83351655080738e-05
-0.00295567530129405,-0.000974929390843474,-3.20083065486778e-06,-7.5905968725878e-05
-0.00295361298046189,-0.000970208702695888,-2.23868185053246e-06,-6.98600615932266e-05
-0.00295265930608864,-0.000958538112553245,-1.29258174511441e-06,-5.96628050872948e-05
-0.00295259970144032,-0.000946855601480937,-4.98514643452713e-07,-4.71499694280693e-05
-0.00295089500849813,-0.000934696253222004,5.20284836433285e-07,-3.43826532747521e-05
-0.00294919031555595,-0.000920438821341921,1.88293563167744e-06,-2.04300541536526e-05
-0.00294821279932337,-0.000904405170941661,3.39660480251155e-06,-3.96050756205437e-06
-0.00294666307846684,-0.000889444404211307,4.71098394615093e-06,1.18218507824547e-05
-0.00294597166454623,-0.000879025511683554,4.95498437534954e-06,2.20538738914341e-05
-0.00294786709236306,-0.0008724213166488,3.08158431090127e-06,2.86664672649067e-05
-0.00295176523636372,-0.000863182596157944,-4.97039508963485e-07,4.00299384697156e-05
-0.00295385139905521,-0.000843095829671373,-3.38372384872378e-06,5.92775909916602e-05
-0.0029543043943825,-0.00082423691894036,-3.47000210769271e-06,7.8049567303104e-05
-0.00295182484101205,-0.000818312216896547,-1.28999080301044e-06,8.61272217187815e-05
-0.00294936912950093,-0.000821268607453621,8.66482492244239e-07,8.34854514894851e-05
-0.00294890421324397,-0.000825989295601207,1.60366886054628e-06,7.79739672532831e-05
-0.00294868963650999,-0.000831568290684717,1.10544514371069e-06,7.4142435537406e-05
-0.00295037048759284,-0.000836288978832303,-8.24258107762616e-08,7.02562439505772e-05
-0.00295081156199047,-0.000841760685548823,-1.41987273019228e-06,6.48382753458229e-05
-0.00295174139450439,-0.000848019173623274,-1.95814820764582e-06,5.96246227519479e-05
-0.0029508711666388,-0.000852596810614872,-1.28598283961659e-06,5.5101183657733e-05
-0.00294994133412488,-0.000860786489295154,-8.12783874348883e-07,4.84128143910477e-05
-0.00295109766430245,-0.000872147135266491,-2.36683106255633e-06,3.7903224839898e-05
-0.00295481699435812,-0.00088355546495649,-5.32821771708399e-06,2.60787122680999e-05
-0.00295546072456007,-0.00089507108301348,-6.91803219835872e-06,1.58560524062588e-05
-0.0029539586874222,-0.000905585342978557,-5.81095371293293e-06,6.63917702501863e-06
-0.00295231359912834,-0.000916218812240291,-3.72828006026153e-06,-3.70186292647267e-06
-0.00295107382244312,-0.00092762714193029,-2.71066602597263e-06,-1.50637214061802e-05
-0.00295025127829619,-0.000939357336721261,-2.57023876200001e-06,-2.54339882674845e-05
-0.00294988172947655,-0.000948524531634124,-2.21790104025124e-06,-3.35090484515128e-05
-0.00294960754809425,-0.000954139289506631,-1.90542627996623e-06,-3.91794462434902e-05
-0.00294997709691388,-0.000958156642803946,-2.45738873355252e-06,-4.25501751693791e-05
-0.00295043009224117,-0.000960636196174395,-3.35318173865356e-06,-4.41643896394023e-05
-0.0029501082271402,-0.000963163433263506,-3.4057274441451e-06,-4.54888102118008e-05
-0.00294984596668756,-0.000965070782010006,-2.7166368533181e-06,-4.77367347572034e-05
-0.00294891613417364,-0.000968372879527383,-2.11325347955161e-06,-5.03877303485819e-05
-0.00294702070635681,-0.000970888195686829,-9.65551440902872e-07,-5.15143630619527e-05
-0.00294392126464374,-0.000968456326035042,2.40513081988844e-06,-4.92701459080566e-05
-0.00293846147885689,-0.00096293693559986,7.77985526100048e-06,-4.31299248744233e-05
-0.00293396728837295,-0.000955057201090884,1.22461960975331e-05,-3.47723103365703e-05
-0.00293201225590779,-0.000948619899071449,1.32362522066602e-05,-2.77785465839642e-05
-0.00293445604648924,-0.000946033057334009,1.12944290137785e-05,-2.47904014314646e-05
-0.00293674486498504,-0.000945842322459359,9.04517555969024e-06,-2.44106110386536e-05
-0.00293710249287501,-0.000944352206251157,8.25810896498557e-06,-2.26018982320125e-05
-0.00293599384641611,-0.000940299090164845,8.69790573559136e-06,-1.7898506914989e-05
-0.00293626802779842,-0.000935626085735922,9.11525681550907e-06,-1.32989283504319e-05
-0.00293694752078936,-0.000934231336965044,8.37497464317633e-06,-1.17489608977079e-05
-0.00293847339978656,-0.000934827383448325,5.94164939952232e-06,-1.1719134490747e-05
-0.00294257419959153,-0.000931954439398911,2.18671998760765e-06,-9.22429537276746e-06
-0.00294647234359219,-0.000925982053636435,-1.70397311677109e-06,-2.81215020883607e-06
-0.00294947641786792,-0.000917673165659497,-4.64205812409143e-06,5.57853408397049e-06
-0.00295065658990482,-0.000909388119541891,-6.50400014651864e-06,1.35845042230938e-05
-0.00295221823169102,-0.000903439575638746,-7.83038542152463e-06,1.9850337058075e-05
-0.0029535772176729,-0.00089997058510605,-8.87802621535455e-06,2.32704493450738e-05
-0.00295351761302457,-0.000899303013044775,-9.38883744555338e-06,2.35668887937727e-05
-0.00295343416651691,-0.000900054031613709,-9.11213350695325e-06,2.27751256739052e-05
-0.00295225399448001,-0.000899469906060094,-8.03875016610183e-06,2.38040688305034e-05
-0.00295033472480385,-0.000895249896958464,-6.2173433075014e-06,2.69089970328681e-05
-0.00294842737605735,-0.000892901473814337,-3.93705542120852e-06,2.93124084432427e-05
-0.00294622200406921,-0.000893938594695246,-2.10684773387786e-06,2.87046312416128e-05
-0.0029455663529376,-0.000896358543417367,-1.69540698714368e-06,2.5434603315322e-05
-0.00294682997148216,-0.000899887138598391,-2.38923533176411e-06,2.09499480038903e-05
-0.00294690149706015,-0.000905621105767554,-2.4000057051993e-06,1.60415095346765e-05
-0.00294412392044806,-0.000909984166025172,-3.00008780700965e-07,1.12959521870119e-05
-0.002941024478735,-0.00091224914266164,3.16941932858433e-06,7.33192554855883e-06
-0.00293895023697318,-0.000916647965708254,5.77837705366484e-06,3.52433110920006e-06
-0.00293778198586595,-0.000921559388730489,6.25712068741259e-06,-1.80277245566828e-06
-0.00293914097184783,-0.000928151662835578,5.42422998334006e-06,-8.63404813495052e-06
-0.00293941515323014,-0.00093193059753958,4.784516830918e-06,-1.41341053688794e-05
-0.00293978470204977,-0.000933706816059757,4.73114223544375e-06,-1.56112462350434e-05
-0.00294042843225172,-0.000932109411484564,4.54525890841673e-06,-1.34549597080563e-05
-0.00294075029735269,-0.00092645889082306,3.58997521875457e-06,-9.94629635533446e-06
-0.00294239538564654,-0.000922691877048723,1.88661160791953e-06,-6.53764038072519e-06
-0.00294555443200793,-0.000920319612045265,-1.21621317619536e-07,-3.82616513360939e-06
-0.0029463292924362,-0.000918614919103081,-1.68222793978878e-06,-2.75310528461073e-06
-0.00294672268311517,-0.000918448026087762,-1.82270407927295e-06,-3.54912955214297e-06
-0.00294485109715766,-0.000918054635408797,-1.36146218236072e-07,-4.23278874647828e-06
-0.00294283646004417,-0.000916755254075244,2.42114431406832e-06,-2.56759621255046e-06
-0.00294158476242928,-0.000914108807689476,4.1891389329765e-06,5.71950793456637e-07
-0.00294010656715075,-0.000909638459064869,4.52694545312447e-06,2.01604374626784e-06
-0.00294038074853305,-0.000911271626429059,4.41974084216413e-06,8.41698199799187e-07
-0.00294153707871062,-0.000913047844949236,5.13532136788068e-06,1.07857430647172e-07
-0.00293862837187221,-0.000908350998660981,6.62942945429504e-06,3.26169555008312e-06
-0.00293736475332765,-0.000899541431638088,7.41884310830112e-06,1.02838454105442e-05
-0.00294036882760339,-0.000893104129618652,5.66698242975925e-06,1.81285728974258e-05
-0.00294617432035055,-0.000887227111293501,4.08244841022973e-07,2.36323202036301e-05
-0.00295271891073697,-0.00088442569282208,-7.54994536262072e-06,2.52569881715199e-05
-0.00296121853358856,-0.000885450892773324,-1.54621223474646e-05,2.35214897127812e-05
-0.00296626108683712,-0.00088845496704906,-1.99126718687742e-05,2.10610300019831e-05
-0.00296540277990119,-0.000888693385642373,-1.90822477074193e-05,2.10406929986798e-05
-0.00296021717549665,-0.000884640269556062,-1.40241013193274e-05,2.35695925276204e-05
-0.00295335072000925,-0.00088442569282208,-7.6382172350931e-06,2.39804389346776e-05
-0.00294902342254063,-0.00089191203665209,-2.46675766345992e-06,1.65616642559978e-05
-0.00294654386917018,-0.000908315235871985,5.65654575767541e-07,6.29429458727164e-07
-0.00294423120881505,-0.000926041658284763,1.76176703075533e-06,-1.82386073057442e-05
-0.00294446962740836,-0.000941550787779736,1.59438737442961e-06,-3.3620944474056e-05
-0.00294698494356781,-0.000952172336111804,2.62477972333603e-07,-4.38121447084386e-05
-0.00294871347836932,-0.000959801731097801,-1.7257999864124e-06,-5.1040483506433e-05
-0.00294907110625929,-0.000964546261104718,-2.85488473597558e-06,-5.64325634644077e-05
-0.0029478551714334,-0.000966262874976568,-1.29741587736512e-06,-5.82423625866965e-05
-0.00294450539019736,-0.000964450893667393,3.05761305542051e-06,-5.55520175617774e-05
-0.00293899792069184,-0.000961005744994029,7.74821518869699e-06,-5.12297859576767e-05
-0.00293695944171902,-0.00095727449400869,9.8836187945276e-06,-4.89658082078614e-05
-0.00293781774865495,-0.000957858619562305,9.06075150229568e-06,-4.84702194549336e-05
-0.0029399158322761,-0.000956428108002431,7.25550498279353e-06,-4.61260548502114e-05
-0.00294159668335895,-0.000950717982692598,6.01663931193677e-06,-4.00165689542479e-05
-0.00294165628800728,-0.000941479262201742,5.10894363323405e-06,-3.14361371363091e-05
-0.00294260996238053,-0.000931870992891252,4.06169742870374e-06,-2.11313610281484e-05
-0.00294476765065,-0.000920569951568243,3.33401260696356e-06,-7.59872582356745e-06
-0.00294433849718204,-0.000902795845436802,3.05272447184008e-06,9.000079224336e-06
-0.00294426697160405,-0.000887453608957148,2.07632836704461e-06,2.44577387443755e-05
-0.00294845121791668,-0.000879001669824223,-3.4782420593587e-07,3.53802421722167e-05
-0.00295035856666318,-0.000869762949333367,-3.11016270200062e-06,4.43377314346373e-05
-0.00295242088749533,-0.000857842019667746,-4.92469442863001e-06,5.61532350303033e-05
-0.00295387524091454,-0.000845563462112156,-6.54008719690082e-06,6.99776671048564e-05
-0.00295681971054195,-0.00083719496948689,-9.41406351903224e-06,7.93727409967278e-05
-0.00296031254293397,-0.000835490276544707,-1.27311560435557e-05,8.05532548162862e-05
-0.00296174305449385,-0.000841045429768886,-1.38627596148864e-05,7.64123640849077e-05
-0.00295916813368607,-0.000847148945757684,-1.18727388325094e-05,7.12765237356398e-05
-0.0029557945105907,-0.000852918675715844,-8.54331347613034e-06,6.58268370404034e-05
-0.00295360105953223,-0.000859308294016617,-5.42782923021067e-06,5.95024178441176e-05
-0.00294971483646124,-0.000866591982042312,-1.895084647556e-06,5.41999115369351e-05
-0.00294425505067438,-0.000868868879608445,2.7845949512947e-06,5.18597984043834e-05
-0.00294085758571968,-0.000870692781847285,7.12860062772377e-06,5.04091436728185e-05
-0.00293891447418418,-0.00087625985600113,9.02725073768677e-06,4.57724554749564e-05
-0.00293889063232485,-0.000885713153225967,8.81736914882859e-06,3.70493898906272e-05
-0.00293884294860619,-0.000896585041081014,8.90382516479324e-06,2.67585290697674e-05
-0.00293729322774966,-0.00090658670107047,1.03169074106428e-05,1.6838970347144e-05
-0.00293685215335203,-0.000916266495958954,1.11833725261128e-05,7.56637795735567e-06
-0.00293912905091816,-0.000925052221122516,9.20695891005928e-06,-1.38165298893583e-07
-0.00294259804145086,-0.000930607374346696,4.72180289240343e-06,-5.01812818532273e-06
-0.00294722336216112,-0.000932884271912829,4.95609008824267e-07,-8.72476460212931e-06
-0.00294991749226555,-0.000940990504085451,-1.1277235652945e-06,-1.54848260567377e-05
-0.00294795053887072,-0.000953960475561647,-2.3233419266058e-07,-2.69887836246853e-05
-0.00294628160871754,-0.00096524959595499,1.41438812081812e-06,-3.98202559245117e-05
-0.00294555443200793,-0.000974428711797518,2.45980960121e-06,-4.94039898700795e-05
-0.00294576900874192,-0.000981378613792575,3.00195542657993e-06,-5.46464695613198e-05
-0.00294383781813608,-0.000983953534600349,3.88955927140325e-06,-5.72229189256879e-05
-0.00294239538564654,-0.000983154832312753,5.50928881348896e-06,-5.81145683652472e-05
-0.002941024478735,-0.000982010423064853,7.26816139773815e-06,-5.69773968285243e-05
-0.00294076221828235,-0.00098052030685665,7.85920474305672e-06,-5.40761893408651e-05
-0.00294202583682691,-0.000976371823333014,6.01576342977677e-06,-5.09317264740592e-05
-0.00294617432035055,-0.000972759781644331,1.61478160933758e-06,-4.91539150629002e-05
-0.00295240896656567,-0.000973761139736243,-3.6269904170205e-06,-4.96406333706928e-05
-0.00295556801292706,-0.000977230130268939,-7.12014956700969e-06,-5.24517983934874e-05
-0.00295574682687204,-0.000979316292960423,-7.70994890168893e-06,-5.65141841185772e-05
-0.0029550673338811,-0.000981462060300234,-6.78930861125908e-06,-6.00231380894191e-05
-0.00295528191061508,-0.000984275399701321,-6.62231586900825e-06,-6.2037735510122e-05
-0.00295634287335532,-0.000984108506686002,-7.8890230733961e-06,-6.28799844105897e-05
-0.00295768993840754,-0.000981557427737559,-9.50416315971824e-06,-6.1961232958991e-05
-0.00295909660810808,-0.000975298939663108,-1.04698024096981e-05,-5.65881982099155e-05
-0.00295921581740474,-0.000963413772786484,-1.09168061995954e-05,-4.51302415103146e-05
-0.00295994299411434,-0.000948023852588168,-1.13164882307653e-05,-3.07680657800591e-05
-0.00296027678014498,-0.000935065802041638,-1.15938854571532e-05,-1.92441189186561e-05
-0.00295915621275641,-0.000926554258260385,-1.12338603750089e-05,-1.20726756261605e-05
-0.00295833366860948,-0.000918006951690134,-9.53636803683268e-06,-4.34750344503037e-06
-0.00295448320832748,-0.000903844887247377,-5.72031983707834e-06,8.95357813432309e-06
-0.00294793861794106,-0.000885415129984327,2.12841957537792e-07,2.5888214565423e-05
-0.00294184702288193,-0.000870394758605644,6.41049361097409e-06,3.87816413892596e-05
-0.00293875950209853,-0.000866854242494955,1.00877712862889e-05,4.21167252203639e-05
-0.00293811577189659,-0.000870347074886982,1.02870913466204e-05,3.76346971175398e-05
-0.00293918865556649,-0.000873851828208675,8.94406101954816e-06,3.1859743976184e-05
-0.00293985622762777,-0.000873768381701015,8.42846487036948e-06,3.03035861523637e-05
-0.00293996351599476,-0.000869858316770692,8.77184549997234e-06,3.43742457613084e-05
-0.00293959396717512,-0.000860381177686523,8.29315137532754e-06,4.2058618544336e-05
-0.00294199007403791,-0.00085015302003342,6.279076303406e-06,5.00482546570491e-05
-0.00294443386461937,-0.000843775322662313,3.69288742990426e-06,5.57854266338193e-05
-0.00294659155288884,-0.000839960625169314,1.47780269553786e-06,5.88880122627556e-05
-0.00294832008769036,-0.000836360504410297,-3.75823920492052e-07,6.08586132508549e-05
-0.00294973867832057,-0.000832748462721614,-1.82339461948291e-06,6.2758126545872e-05
-0.00294973867832057,-0.000831496765106724,-2.16503275423398e-06,6.32078913182438e-05
-0.00294892805510331,-0.000834608127749451,-1.15769142863981e-06,5.95168917808381e-05
-0.00294752138540276,-0.000841808369267486,2.10743450656378e-07,5.0960211594703e-05
-0.0029459835854759,-0.000850784829305698,9.27256543169033e-07,4.00595818609466e-05
-0.00294621008313954,-0.00086079841022482,1.34449597772587e-06,3.01015161505562e-05
-0.00294464844135335,-0.000867939047094527,2.48426205008331e-06,2.21143948868342e-05
-0.00294239538564654,-0.000873661093334025,4.32200968679104e-06,1.49900508009759e-05
-0.00294104832059433,-0.000879812293041485,5.7471925106364e-06,7.83350175912448e-06
-0.00294044035318138,-0.00088652377644323,6.22262617662573e-06,9.41622096444409e-07
-0.00293970125554211,-0.000892305427331056,6.54101016909115e-06,-5.2982147381919e-06
-0.00293862837187221,-0.000896656566659007,7.51045929237849e-06,-1.10346772399282e-05
-0.0029375554882023,-0.000901389175736259,8.51070848249947e-06,-1.61264850062874e-05
-0.00293738859518698,-0.000905084663932601,8.03902273164158e-06,-1.99458675821861e-05
-0.00294024961830673,-0.000907731110318369,5.5872561622765e-06,-2.26647304726045e-05
-0.00294243114843554,-0.000908994728862925,2.41680385152859e-06,-2.55565747726165e-05
-0.00294491070180599,-0.00091303592401957,2.21945061414222e-07,-2.89251377754254e-05
-0.00294537561806295,-0.00091494327276607,-7.02024162094236e-07,-3.06695852254113e-05
-0.00294615047849122,-0.00091178422640468,-1.58088644235982e-06,-2.85023335307699e-05
-0.00294713991565346,-0.000906574780140804,-3.48311710340202e-06,-2.33430955323403e-05
-0.00295034664573351,-0.000902915054733458,-5.9949706660628e-06,-1.88962678857792e-05
-0.00295145529219242,-0.000901234203650606,-7.91311936040939e-06,-1.74733530491851e-05
-0.00295176523636372,-0.000900816971112309,-8.89725340155453e-06,-1.75136685371594e-05
-0.00295286196189296,-0.000899827533950063,-9.72690142384112e-06,-1.59616490466073e-05
-0.00295391100370353,-0.000897133403845632,-1.08725446811086e-05,-1.21559476191035e-05
-0.00295351761302457,-0.000892531924994703,-1.15947219477375e-05,-8.38652841694241e-06
-0.00295299309211928,-0.000891244464590815,-1.0954353771352e-05,-7.05162024960472e-06
-0.00295122879452877,-0.00089449887838953,-9.19059146059473e-06,-8.24419937335781e-06
-0.00294878500394732,-0.000896036678316395,-7.42420739509442e-06,-1.01757726810688e-05
-0.00294735449238744,-0.000896763855025998,-6.26008184995032e-06,-1.1217873221545e-05
-0.00294618624128021,-0.000898039394500219,-5.39101355873527e-06,-1.11061468967582e-05
-0.00294519680411797,-0.000898790413069154,-4.52916823797975e-06,-1.04584002705091e-05
-0.0029444577064787,-0.00089738374336861,-4.03915438724917e-06,-9.71051283052026e-06
-0.00294437425997104,-0.000897157245704963,-4.47575366502485e-06,-8.85173317828396e-06
-0.00294559019479693,-0.000897836738695904,-5.97711472062176e-06,-7.95759984408006e-06
-0.0029478909342224,-0.000898230129374869,-8.26083833368763e-06,-7.36714481073236e-06
-0.00295041817131151,-0.000897562557313595,-1.07758656488246e-05,-7.10055642159951e-06
-0.00295122879452877,-0.000898075157289216,-1.26879423041418e-05,-6.58555699655489e-06
-0.00295200365495704,-0.000898551994475841,-1.31436244162925e-05,-5.34385446848649e-06
-0.0029508354038498,-0.000897347980579613,-1.18610975356015e-05,-3.50261785655758e-06
-0.00294793861794106,-0.000894963794646489,-9.3326070605944e-06,-1.14766981622226e-06
-0.00294418352509639,-0.000892496162205706,-6.38948401909023e-06,2.27552355594327e-06
-0.00294199007403791,-0.000890100055342916,-3.6626754333761e-06,7.09066331959126e-06
-0.00293979662297944,-0.000884473376540743,-1.18130543831166e-06,1.22880027333103e-05
-0.00293570774410413,-0.000881075911586041,1.90802855081883e-06,1.62902633275656e-05
-0.00293084400480056,-0.000880193762790785,6.81490708776417e-06,1.86858816086383e-05
-0.00292495506554574,-0.00088020568372045,1.34098347835822e-05,2.02339509449793e-05
-0.0029185892891043,-0.000878942065175895,1.92138595625599e-05,2.13669210734786e-05
-0.0029163362333975,-0.000878882460527567,2.13230108693275e-05,2.20588145552934e-05
-0.00291849392166697,-0.000879871897689813,1.97391860055451e-05,2.32678131384359e-05
-0.00291992443322685,-0.00087664132575043,1.76295360856609e-05,2.67236933510867e-05
-0.00292100923782642,-0.000871610693431538,1.74967851626136e-05,3.22253751515291e-05
-0.00292010324717183,-0.000869178823779751,1.80808909311845e-05,3.63276687175673e-05
-0.00292180794011402,-0.000870657019058288,1.62072258696652e-05,3.50422586060713e-05
-0.00292739885612719,-0.000879848055830482,1.1089790597578e-05,2.73968319843679e-05
-0.00293376463256864,-0.000892067008737743,5.42268970338186e-06,1.55860628662401e-05
-0.00293650644639173,-0.000906097942954179,2.20251952602418e-06,2.49090086655703e-06
-0.00293715017659367,-0.000919258649305025,1.5842167040108e-06,-9.79597802036433e-06
-0.00293862837187221,-0.000930047090652412,1.25777854408626e-06,-1.9829581332074e-05
-0.00294049995782971,-0.000938677843730321,-6.67107105248999e-07,-2.70528840419905e-05
-0.00294338482280879,-0.000943946894642526,-3.45891609149286e-06,-3.23478863977491e-05
-0.00294421928788538,-0.000949275550203058,-4.23065553659623e-06,-3.69958313959367e-05
-0.00294215696705323,-0.000955116805739212,-7.63958453175729e-07,-4.0686607413737e-05
-0.00293520706505818,-0.000955772456870821,5.76503911201118e-06,-4.15691948350306e-05
-0.00293009298623162,-0.0009529710383994,1.12317105063863e-05,-3.86527626733831e-05
-0.00292983072577898,-0.00094951396879637,1.24344998495566e-05,-3.31594075875562e-05
-0.00293160694429916,-0.000943815764416204,1.04083192674651e-05,-2.69176104677259e-05
-0.0029341580232476,-0.000937116201944125,9.22539342877e-06,-2.0357677664864e-05
-0.0029315592605805,-0.000931298788267302,1.15589300754145e-05,-1.30993581493901e-05
-0.00292744653984586,-0.000924456174639235,1.60184912638727e-05,-5.99973278659953e-06
-0.00292581337248167,-0.000921237523629518,1.86834830083155e-05,-1.28724387552215e-06
-0.00292866247467175,-0.000919938142295965,1.6475599986481e-05,-2.6273968402382e-07
-0.00293566006038547,-0.000922107751495108,9.14705747690176e-06,-1.62505932644675e-06
-0.00294648426452185,-0.000924336965342579,-9.05842153204414e-07,-2.70840011982692e-06
-0.00295683163147161,-0.000924205835116257,-1.02229564245857e-05,-2.03987340514462e-06
-0.00296320932884272,-0.000922191198002767,-1.62888204815582e-05,7.55561531177215e-10
-0.00296545046361986,-0.000920248086467271,-1.86575553363527e-05,2.87835832399911e-06
-0.00296578424965049,-0.000916969830809225,-1.82916059522488e-05,7.14838822382824e-06
-0.00296516436130788,-0.000910842472961096,-1.61734682918623e-05,1.33236133097639e-05
-0.00296127813823689,-0.000904250198856008,-1.30405513318042e-05,2.02609180809464e-05
-0.00295885818951477,-0.000899994426965381,-9.99711878909253e-06,2.59547427139165e-05
-0.00295809525001617,-0.000895535999270439,-8.21769004126511e-06,2.99115894953842e-05
-0.00295790451514152,-0.00089305644589999,-7.85084146106181e-06,3.34294693513254e-05
-0.0029584290360468,-0.000890004687905591,-8.12691581244136e-06,3.69800378830257e-05
-0.00295968073366169,-0.000888681464712707,-8.76104703528934e-06,3.8536158707242e-05
-0.00296105164057324,-0.000891900115722425,-1.0257740089525e-05,3.57638828355464e-05
-0.00296472328691025,-0.000898730808420825,-1.24448772795798e-05,2.93511301228815e-05
-0.0029652954915342,-0.000906074101094848,-1.37790511909767e-05,2.27079211968581e-05
-0.00296504515201122,-0.000910806710172099,-1.28892787037691e-05,1.8099677301435e-05
-0.00296260136142977,-0.000914502198368442,-1.01039436546627e-05,1.41660909431698e-05
-0.00296007412434066,-0.000921988542198452,-6.74569162602209e-06,7.95945035548029e-06
-0.00295619982219933,-0.000931441839423289,-3.61072350145097e-06,-1.18963065238379e-06
-0.00295410173857818,-0.000940132197149527,-9.48218613635607e-07,-1.07886259354091e-05
-0.0029531599851346,-0.000948405322337468,7.55655806179325e-07,-1.81692112367698e-05
-0.00295249241307333,-0.000954771098778909,1.13489021366938e-06,-2.34470646250531e-05
-0.00295252817586232,-0.000958919582302545,8.52710604921147e-07,-2.87272161240216e-05
-0.00295318382699393,-0.000965404568040643,1.11906234295081e-06,-3.47470399011675e-05
-0.00295183676194172,-0.000970590172445188,2.26978243453447e-06,-3.97096672982011e-05
-0.00295012014806987,-0.000973725376947246,3.6118734404508e-06,-4.21579094783874e-05
-0.00294978636203923,-0.000974249897852534,4.65993396219753e-06,-4.35652806268283e-05
-0.00294864195279133,-0.000976514874489002,5.64295301881348e-06,-4.58584553506666e-05
-0.00294716375751279,-0.000978004990697204,6.55107666498858e-06,-4.65364043805327e-05
-0.00294805782723771,-0.000970184860836557,6.47392568405385e-06,-3.92096319819846e-05
-0.00294984596668756,-0.000951695498925179,4.46044041873325e-06,-2.10996696452227e-05
-0.00295273083166664,-0.00092934375580214,7.33134495953258e-07,1.40255361454768e-06
-0.00295760649189988,-0.000913095528667899,-3.38410210164401e-06,1.72281401308307e-05
-0.00296090858941725,-0.000909996086954837,-6.67912360311558e-06,2.07974489080383e-05
-0.00296225565446947,-0.000913655812362183,-8.93841021710734e-06,1.62048139619358e-05
-0.00296400803113032,-0.000917565877292506,-1.05774803324192e-05,1.16498720272258e-05
-0.00296547430547919,-0.000918161923775787,-1.15411889019006e-05,1.19676049757836e-05
-0.00296406763577864,-0.00091186767291234,-1.08984336112744e-05,1.71018075582865e-05
-0.00296058672431628,-0.00090312963146744,-7.88334021575828e-06,2.52330164335322e-05
-0.00295645016172231,-0.000893580966805277,-3.24724504035974e-06,3.48885154015674e-05
-0.00295172947357473,-0.000883114390558862,9.99853501610922e-07,4.45641240488513e-05
-0.00294898765975163,-0.000875020079315905,3.45250179046574e-06,5.24434175948038e-05
-0.00294758099005109,-0.000869357637724736,4.49106818877944e-06,5.73194627755956e-05
-0.00294672268311517,-0.000866913847143283,5.39250975743504e-06,5.91999565498032e-05
-0.00294520872504763,-0.000866818479705958,6.86769193586904e-06,5.86624622614732e-05
-0.00294235962285755,-0.000869512609810389,8.89462697488164e-06,5.58272817926389e-05
-0.00294002312064309,-0.00087443595376229,1.12627358438784e-05,5.00136613232181e-05
-0.00293788927423294,-0.000882458739427253,1.33981299325609e-05,4.03845608989394e-05
-0.00293687599521136,-0.000896465831784357,1.40651459263077e-05,2.71213233316262e-05
-0.00293798464167026,-0.000910973603187418,1.22947530378119e-05,1.175663607318e-05
-0.00294194239031925,-0.000924968774614857,8.64653199656731e-06,-4.38670928297943e-06
-0.00294526832969596,-0.000943148192354929,4.82073305981433e-06,-2.2036736061126e-05
-0.00294806974816738,-0.000963258800700831,2.05782934921152e-06,-4.2953101719861e-05
-0.00294882076673631,-0.000985550939175542,5.71345096429682e-07,-6.63819200255194e-05
-0.00294920223648561,-0.00100591188704442,2.73239453302432e-07,-8.77459702399515e-05
-0.00294860619000233,-0.00102000242590919,9.81228059495277e-07,-0.000102117911731092
-0.00294711607379413,-0.00102494961172042,1.87825267653598e-06,-0.00010821606975394
-0.00294646042266252,-0.00102425819779981,1.9364362935021e-06,-0.00010776888718379
-0.00294792669701139,-0.00101696258884445,1.24889285561335e-06,-0.000102141032032403
-0.00294755714819176,-0.00100640064516071,9.35419813791672e-07,-9.19665797449967e-05
-0.00294672268311517,-0.00099366909227783,1.29447715958488e-06,-7.97280353396614e-05
-0.00294708031100513,-0.000982546864899806,1.13846926564835e-06,-6.94191951275104e-05
-0.00294839161326835,-0.000973475037424268,-2.89763911654385e-07,-6.1919501789404e-05
-0.00294964331088324,-0.000964129028566422,-1.72981794603835e-06,-5.27377339087941e-05
-0.00294888037138464,-0.00094796424793984,-1.35732691119821e-06,-3.68251220241355e-05
-0.00294662731567784,-0.00092463498858422,7.10031651502431e-07,-1.50601125779081e-05
-0.00294543522271128,-0.000902640873351149,2.50360541900675e-06,6.18703929095003e-06
-0.00294450539019736,-0.00088663106481022,2.64443372193549e-06,2.21631153610208e-05
-0.00294511335761031,-0.000872921995694756,1.70383754302434e-06,3.46916242197094e-05
-0.00294625776685821,-0.000858199647557714,1.03772281215745e-06,4.91783192124168e-05
-0.00294621008313954,-0.000838375141523787,1.0688073220502e-06,6.77045107162671e-05
-0.00294559019479693,-0.0008192301284808,1.08299881496062e-06,8.64031794300617e-05
-0.00294587629710891,-0.000806295919793601,3.81687224306094e-07,9.97616633572405e-05
-0.00294805782723771,-0.000797855901590341,-6.46879878249871e-07,0.000106484130592132
-0.00294735449238744,-0.000793492841332724,-7.17000981236507e-07,0.000109985953812936
-0.00294499414831365,-0.000791466283289569,8.27474871707359e-07,0.000113064133806524
-0.00294413584137773,-0.000789523171754072,2.69608814558568e-06,0.000113530991787184
-0.00294412392044806,-0.000795698213320864,2.54223654676729e-06,0.000106631460962197
-0.0029462935296472,-0.000810992766081856,-4.00915318189113e-07,9.13000019793949e-05
-0.00295038240852251,-0.000830304672140161,-4.16852424923212e-06,7.20370127034271e-05
-0.002952361282847,-0.000847172787617015,-6.13338953312607e-06,5.40550204176711e-05
-0.00295187252473071,-0.000862669996182322,-5.6799339961147e-06,3.83467437807423e-05
-0.00294995325505455,-0.00087846522798927,-4.16372461698317e-06,2.26121901963131e-05
-0.00294890421324397,-0.000895190292310136,-2.92442906881607e-06,5.37640620186258e-06
-0.00294809359002671,-0.000912582928692277,-2.43503336524203e-06,-1.25228769598196e-05
-0.00294893997603297,-0.000929439123239465,-2.91951219101301e-06,-2.92873533400172e-05
-0.00294998901784355,-0.00094298129933961,-4.33867939608089e-06,-4.29459760663218e-05
-0.00295095461314646,-0.000950598773395942,-5.70104128361705e-06,-5.16541020824888e-05
-0.00295130032010676,-0.000955486354558847,-5.76239283927356e-06,-5.55129173449097e-05
-0.00295077579920148,-0.00095689302425939,-4.8237687653633e-06,-5.76360242233651e-05
-0.0029493452876416,-0.000959420261348501,-4.66911180812743e-06,-6.08755317448708e-05
-0.00295143145033309,-0.000962603149569222,-6.11119110507019e-06,-6.35187802786539e-05
-0.0029528142781743,-0.000960433540370079,-7.5809241297379e-06,-6.10546650343974e-05
-0.00295207518053503,-0.000950789508270592,-6.94340779598939e-06,-5.28448117954303e-05
-0.00294877308301765,-0.000942695197027635,-4.03052556385322e-06,-4.40770512246808e-05
-0.00294506567389164,-0.000938451346066674,-5.75096645560115e-07,-3.94937797889031e-05
-0.00294333713909013,-0.000935721453173247,1.90277597925811e-06,-3.7698101753263e-05
-0.00294097679501634,-0.000932097490554898,3.35065260489117e-06,-3.39468196783574e-05
-0.00293996351599476,-0.000925135667630176,4.52395290525361e-06,-2.66860628528739e-05
-0.00293828266491191,-0.000916647965708254,5.73593741677335e-06,-1.85567822238016e-05
-0.00293834226956023,-0.000909793431150522,6.41990080686318e-06,-1.19497833225946e-05
-0.00293821113933391,-0.00090457206395698,5.84138771129914e-06,-6.41945804907046e-06
-0.00293918865556649,-0.000898325496812194,4.28493804977697e-06,-4.73895046427401e-07
-0.00294117945082065,-0.000891459041324797,3.20206707458089e-06,6.24999813326091e-06
-0.0029402257764474,-0.000885093264883355,3.49974258321815e-06,1.27580662381855e-05
-0.00293978470204977,-0.000880646758118079,3.78719161308786e-06,1.69561402054849e-05
-0.00294204967868624,-0.000881445460405675,1.36537979246132e-06,1.62640702312726e-05
-0.00294834392954969,-0.00088739400430882,-4.62142075539601e-06,9.88647519230642e-06
-0.00295497196644377,-0.000896835380603992,-1.18044873823866e-05,6.64572148900216e-07
-0.00296003836155166,-0.000904691273253636,-1.67370269671112e-05,-7.06430534094624e-06
-0.00296072977547227,-0.000908696705621284,-1.76157582699803e-05,-1.17091992593826e-05
-0.00295774954305586,-0.000911998803138661,-1.46062390368546e-05,-1.4913455507006e-05
-0.00295153873870008,-0.00091494327276607,-8.80099715684675e-06,-1.76880678437481e-05
-0.00294507759482131,-0.000915575082038348,-1.83325255282368e-06,-1.80745792276285e-05
-0.00293808000910759,-0.000909555012557209,4.54004094302693e-06,-1.3398906548307e-05
-0.00293293016749204,-0.000900304371136687,9.78446213436035e-06,-3.26875900197523e-06
-0.0029277088002985,-0.000887107901996845,1.48711808059914e-05,1.02725615562707e-05
-0.00292322653074423,-0.000872755102679437,2.00299952369524e-05,2.38735389606513e-05
-0.00291892307513494,-0.000862419656659344,2.2987891788868e-05,3.34998437003396e-05
-0.00292162912616903,-0.00086109643346646,2.10626573563049e-05,3.61096043381972e-05
-0.00292829292585212,-0.000864887289100128,1.46536270220754e-05,3.23655146445015e-05
-0.00293519514412851,-0.000869274191217076,6.98799997118999e-06,2.63167125884285e-05
-0.00294220465077189,-0.000875806860673836,5.15850359962729e-07,2.08608268465875e-05
-0.00294681805055249,-0.000882339530130597,-4.66234830387445e-06,1.47836971133702e-05
-0.00295152681777041,-0.000890481525092216,-8.6280301136456e-06,5.95414808543147e-06
-0.00295285004096329,-0.000900340133925684,-1.00267970689118e-05,-3.88266685393202e-06
-0.00294965523181291,-0.000906407887125485,-7.8082432073937e-06,-1.001398605992e-05
-0.00294624584592854,-0.000907409245217397,-3.32528542521997e-06,-1.03038029952963e-05
-0.0029425503577322,-0.000904905849987617,5.73160738756186e-07,-7.71691021869274e-06
-0.00294048803690005,-0.000903153473326771,2.02280142667461e-06,-6.81775150471426e-06
-0.00294103639966466,-0.000905752235993876,1.08755275483824e-06,-9.16432781254939e-06
-0.00294482725529833,-0.000911033207835746,-9.62724625612502e-07,-1.27105439795219e-05
-0.00294513719946964,-0.000911963040349665,-2.5236522225247e-06,-1.46857035439421e-05
-0.00294541138085195,-0.000910842472961096,-2.49348685525313e-06,-1.42435972247115e-05
-0.00294427889253371,-0.000910496766000793,-1.11324942252809e-06,-1.25146659214336e-05
-0.00294307487863749,-0.000909674221853865,3.70263308753186e-07,-1.0500818178366e-05
-0.00294204967868624,-0.000905048901143604,1.31237191460369e-06,-7.43256833560635e-06
-0.00294128673918764,-0.000899767929301734,2.28785609079e-06,-1.96965173858671e-06
-0.00293960588810479,-0.000894510799319196,3.65033100302194e-06,5.09059684541073e-06
-0.0029395343625268,-0.000889110618180669,4.43243580913331e-06,1.08484506945656e-05
-0.00294096487408667,-0.000884854846290043,3.53060760235778e-06,1.38666305221624e-05
-0.00294206159961591,-0.000883245520785184,1.16565858483509e-06,1.61773112506821e-05
-0.0029459120598979,-0.000881040148797044,-1.79732074878695e-06,2.02250193951785e-05
-0.00295032280387418,-0.000876212172282467,-5.08874499030338e-06,2.5074671394686e-05
-0.00295233744098767,-0.000872254423633481,-8.22117708069891e-06,2.77086953534872e-05
-0.0029531242223456,-0.000874292902606303,-9.16409340348242e-06,2.72893964203943e-05
-0.00295137184568476,-0.000877440028038026,-5.86143424751403e-06,2.5765208832648e-05
-0.00294469612507201,-0.000877940707083983,5.89178069367673e-07,2.45021694265932e-05
-0.00293823498119324,-0.000879001669824223,5.91995924313283e-06,2.27723655384555e-05
-0.00293900984162151,-0.000884461455611077,6.83952702576846e-06,1.98385642545562e-05
-0.00294111984617232,-0.00088845496704906,4.37851583151139e-06,1.6125662134646e-05
-0.00294305103677815,-0.000892031245948746,2.25720068799149e-06,1.15800813792456e-05
-0.00294353979489444,-0.000900137478121369,2.47174842533697e-06,5.09227513368438e-06
-0.00294210928333457,-0.000908303314942319,3.50304149480099e-06,-3.20908256299274e-06
-0.0029432417716528,-0.000917458588925516,2.93319082994265e-06,-1.07531512823914e-05
-0.00294548290642994,-0.000920867974809883,9.02594245349062e-07,-1.48564215980872e-05
-0.00294597166454623,-0.000921213681770186,4.90815847644884e-08,-1.50417637869658e-05
-0.00294468420414234,-0.000920367295763927,1.96195636078336e-06,-1.23036946571498e-05
-0.00294190662753025,-0.000915420109952695,4.67246844590937e-06,-7.77703056087112e-06
-0.00294204967868624,-0.000911068970624743,4.69868492733084e-06,-3.26910777381976e-06
-0.00294580477153091,-0.000909709984642862,1.27259939134201e-06,-1.30080314111654e-06
-0.00294947641786792,-0.000911903435701336,-2.82674818049942e-06,-2.75929775760358e-06
-0.00295223015262068,-0.00091475253789142,-4.92908942179073e-06,-5.53516485263762e-06
-0.00295296925025995,-0.000916314179677616,-5.48246831283593e-06,-7.06277292156388e-06
-0.00295363682232123,-0.000917244012191535,-6.50937317857784e-06,-7.29306062968822e-06
-0.00295581835245003,-0.000917816216815485,-8.39624027850233e-06,-7.71923698999798e-06
-0.00295748728260322,-0.000918757970259068,-9.76953935860159e-06,-8.64138307446693e-06
-0.00295772570119653,-0.000920260007396937,-9.86223802486024e-06,-9.35420883268357e-06
-0.00295689123611994,-0.000920450742271587,-9.36001726527148e-06,-1.02121020987992e-05
-0.0029570104454166,-0.000923049504938692,-9.03926842433193e-06,-1.21788421645341e-05
-0.00295676010589362,-0.000925540979238807,-8.84655724558122e-06,-1.43833653789173e-05
-0.00295676010589362,-0.000925111825770844,-8.24272693444926e-06,-1.41967822573633e-05
-0.00295404213392986,-0.00092117791898119,-6.46457526193786e-06,-1.02747863028744e-05
-0.00295132416196609,-0.000915217454148379,-2.87682799619833e-06,-4.24021572306024e-06
-0.00294696110170848,-0.000910306031126143,1.72014705213189e-06,8.77363060908044e-07
-0.00294322985072314,-0.0009085178916763,4.72066857968626e-06,2.72368906236164e-06
-0.00294431465532271,-0.000910067612532831,4.3173300527571e-06,2.35611784283445e-07
-0.00294665115753717,-0.00091695790987956,2.14048291449448e-06,-6.16291640170811e-06
-0.00294693725984915,-0.000925684030394794,1.45569556310226e-06,-1.4313897433408e-05
-0.00294570940409359,-0.000931155737111314,2.91092336075903e-06,-2.12947356099223e-05
-0.00294488685994666,-0.000935506876439266,4.19142877329868e-06,-2.53107563649834e-05
-0.00294501799017298,-0.000936579760109172,3.97198373779531e-06,-2.63222389150651e-05
-0.00294436233904137,-0.000935185011338294,3.70701993992256e-06,-2.5066597205283e-05
-0.00294507759482131,-0.00093173986266493,4.72638615417929e-06,-2.2427485871361e-05
-0.00294317024607481,-0.000928640420951868,5.9362749644824e-06,-1.96946407917092e-05
-0.00294281261818484,-0.000927949007031262,5.71352431253755e-06,-1.82932362701472e-05
-0.0029452206459773,-0.000927579458211628,4.11734820191925e-06,-1.8871724326218e-05
-0.00294759291098076,-0.000929033811630834,1.84759373688379e-06,-2.10930139188945e-05
-0.00295078772013114,-0.00093222862078122,-1.06943237517258e-06,-2.3883803772396e-05
-0.00295230167819868,-0.000933241899802798,-3.92075543864187e-06,-2.50263752259276e-05
-0.00295425671066384,-0.000928413923288221,-4.4768603533712e-06,-2.14559525926562e-05
-0.00295171755264506,-0.000919330174883018,-1.57706035923349e-06,-1.2063847707784e-05
-0.00294630545057687,-0.000907361561498735,2.82381441183551e-06,-1.82420526545549e-07
-0.0029429318274815,-0.000897216850353292,6.15124056770598e-06,8.9437448279877e-06
-0.00294181126009293,-0.000892472320346374,8.36168765686407e-06,1.38385890574241e-05
-0.00293972509740145,-0.000888145022877754,1.04331943253351e-05,1.80124088108341e-05
-0.00293796079981093,-0.000880575232540085,1.12229409383959e-05,2.46571686344467e-05
-0.00294076221828235,-0.000873351149162718,8.84556013897435e-06,3.22894037751459e-05
-0.00294592398082757,-0.000867593340134224,4.48876742116314e-06,3.73645812477997e-05
-0.00294845121791668,-0.000865244916990096,1.64717039134243e-06,3.94532183753164e-05
-0.00294805782723771,-0.000863516382188581,1.41512402974069e-06,4.12832232151264e-05
-0.00294847505977601,-0.000860023549796554,1.47644563943769e-06,4.41713864996183e-05
-0.0029501439899292,-0.00085802083361273,3.55453175624679e-07,4.57951126074315e-05
-0.00295028704108519,-0.000861406377637766,-1.85405727207613e-07,4.30839972311243e-05
-0.00294808166909705,-0.000867509893626564,1.71822810786964e-06,3.60451754074521e-05
-0.00294532793434429,-0.000874769739792927,4.80334239009963e-06,2.81703474606441e-05
-0.0029440047111514,-0.00088067059997741,6.30167922500815e-06,2.35636809702754e-05
-0.0029452206459773,-0.000879538111659176,5.31370813234865e-06,2.35781452913755e-05
-0.00294663923660751,-0.00087713008386672,3.04258667280057e-06,2.56629775729399e-05
-0.00294928568299327,-0.000877475790827023,7.54339633361659e-07,2.56883189508525e-05
-0.00295182484101205,-0.000881445460405675,-1.12086282729517e-06,2.18855983025653e-05
-0.00295276659445563,-0.000886702590388214,-2.64751796738604e-06,1.60957578008321e-05
-0.00295413750136718,-0.000891566329691787,-4.32545048165227e-06,1.08497424970842e-05
-0.00295673626403429,-0.000896763855025998,-6.78808264611658e-06,6.46707503218808e-06
-0.00296025293828564,-0.000900614315307993,-9.6811469242331e-06,2.1491640717946e-06
-0.00296158808240819,-0.000904274040715339,-1.14854123076771e-05,-1.48944670497079e-06
-0.0029604079103713,-0.000905501896470898,-1.12441736416509e-05,-3.26880270260355e-06
-0.00296009796619999,-0.000907588059162382,-9.78032905729291e-06,-4.29989256041056e-06
-0.00295858400813246,-0.000910008007884503,-8.44060028528032e-06,-7.37968154679504e-06
-0.00295666473845629,-0.000915575082038348,-7.40442240620467e-06,-1.30628324038034e-05
-0.00295565145943472,-0.000921297128277846,-6.12000728392517e-06,-1.86211376864728e-05
-0.00295442360367916,-0.000924849565318201,-4.67991389466711e-06,-2.18831285252196e-05
-0.00295294540840062,-0.0009267569140647,-3.69634643939087e-06,-2.40810380235121e-05
-0.00295257585958098,-0.000929975565074418,-3.25836004714392e-06,-2.7426698382796e-05
-0.00295180099915272,-0.000934183653246382,-2.95285842257265e-06,-3.14636596463613e-05
-0.00295158642241874,-0.000936603601968503,-2.57664245695741e-06,-3.36639080616433e-05
-0.00295084732477947,-0.000935292299705285,-2.04754798064175e-06,-3.27609359116896e-05
-0.00294966715274257,-0.000932478960304198,-1.05310733741185e-06,-2.98605434371162e-05
-0.00294775980399607,-0.000929570253465787,3.61250111220182e-07,-2.68629709632471e-05
-0.00294704454821614,-0.000927960927960928,1.26663503255287e-06,-2.52745500869361e-05
-0.00294708031100513,-0.000928425844217887,8.305936732052e-07,-2.60056727532215e-05
-0.00294833200862002,-0.000931215341759642,-4.69294859969556e-07,-2.86041831561152e-05
-0.00294880884580665,-0.000933039243998482,-1.45868647710131e-06,-3.06754526135966e-05
-0.00294878500394732,-0.000931811388242923,-1.74837596824134e-06,-2.94226843533402e-05
-0.00294907110625929,-0.000926387365245066,-1.65071790173432e-06,-2.4004786229694e-05
-0.00294761675284009,-0.000917732770307825,-9.59248755206798e-07,-1.57025520543798e-05
-0.00294524448783663,-0.000908362919590647,9.24274433557886e-07,-6.28253017433909e-06
-0.00294277685539584,-0.000899624878145747,3.55491376602777e-06,2.6434326909927e-06
-0.00294088142757901,-0.000892150455245403,5.3254597881953e-06,9.26846914649232e-06
-0.00294017809272874,-0.000889480167000304,5.26769017490871e-06,1.24582825642814e-05
-0.00294086950664935,-0.000888669543783041,4.21084434275634e-06,1.31267705521088e-05
-0.00294181126009293,-0.000887823157776782,3.71208413623942e-06,1.32805898760928e-05
-0.0029401900136584,-0.000887715869409792,4.40469651354453e-06,1.35674692616173e-05
-0.00293865221373154,-0.000888407283330398,5.73124782215895e-06,1.32552312344661e-05
-0.00293756740913197,-0.000887990050792101,6.73428515998776e-06,1.26721165012841e-05
-0.00293711441380467,-0.000886976771770523,6.70610020454929e-06,1.36178792461808e-05
-0.00293813961375592,-0.000884819083501046,5.51153894733158e-06,1.65155137542795e-05
-0.00293960588810479,-0.000881540827843,3.70712979468045e-06,1.88910555224027e-05
-0.00294073837642302,-0.000882256083622937,2.12480517592936e-06,1.79417390198508e-05
-0.0029417874182336,-0.000886929088051861,1.16342211346412e-06,1.34769161283408e-05
-0.00294144171127329,-0.000893366390071296,7.83073139641268e-07,7.35284582987433e-06
-0.00294119137175032,-0.000898289734023197,1.14867582243188e-06,1.30507077649199e-06
-0.00293927210207415,-0.000903737598880386,2.52691959888883e-06,-3.48156402908479e-06
-0.00293747204169464,-0.000906038338305851,4.21321549742051e-06,-6.08632086653286e-06
-0.00293688791614103,-0.000907099301046091,4.38107041797463e-06,-7.01018274489435e-06
-0.00293948667880813,-0.000908541733535631,1.84132583676358e-06,-8.8446290892723e-06
-0.00294321792979347,-0.000913715417010511,-2.39298207721733e-06,-1.37586826469851e-05
-0.00294661539474817,-0.00092022424460794,-6.07665834060008e-06,-2.02752565877214e-05
-0.00294866579465066,-0.000923669393281304,-8.0806805508258e-06,-2.40421162128995e-05
-0.00294940489228993,-0.000922763402626717,-9.00083200798229e-06,-2.21049200416679e-05
-0.00294936912950093,-0.000914800221610082,-9.56176645252766e-06,-1.55432385791166e-05
-0.00294953602251625,-0.000908434445168641,-9.48452610336924e-06,-7.9955418166586e-06
-0.00294795053887072,-0.000903177315186102,-8.36803139083044e-06,-2.59009144002772e-06
-0.00294680612962282,-0.000900375896714681,-6.83055095142775e-06,-1.7541673266886e-07
-0.00294493454366532,-0.000899684482794075,-5.90077435377148e-06,7.68505282640233e-07
-0.00294494646459499,-0.000898015552640888,-5.56368728131946e-06,2.99602268001455e-06
-0.00294421928788538,-0.000892710738939687,-4.73422112838039e-06,8.49629146430828e-06
-0.00294189470660059,-0.000884366088173752,-2.78328747735596e-06,1.69414350638305e-05
-0.00293918865556649,-0.000875222735120221,-4.8753341727802e-07,2.60468523876417e-05
-0.00293852108350522,-0.000868749670311789,8.85241910771797e-07,3.3393428621818e-05
-0.00293768661842862,-0.000864720396084809,1.15962345921611e-06,3.79833443248932e-05
-0.00293741243704632,-0.000861513666004757,1.53934910485643e-06,4.06322876206011e-05
-0.0029356481394558,-0.000859737447484579,3.22784405351704e-06,4.30772507463298e-05
-0.0029329778512107,-0.000857996991753399,5.86535032959048e-06,4.59346642604624e-05
-0.00293184536289247,-0.00085676913599784,7.4881581069107e-06,4.71998662964725e-05
-0.00293229835821976,-0.000859761289343911,6.23815946507589e-06,4.38239733986911e-05
-0.00293697136264869,-0.000869512609810389,2.24594959658233e-06,3.53996464279494e-05
-0.0029413344229063,-0.000880575232540085,-2.22647716315765e-06,2.51006922683157e-05
-0.0029436590041911,-0.00088921790654766,-4.57584669012981e-06,1.62130738422623e-05
-0.00294314640421548,-0.000896251255050376,-3.75982259673034e-06,9.29579192544413e-06
-0.00293960588810479,-0.00090312963146744,-5.8057653567108e-07,3.8876793058347e-06
-0.00293623226500942,-0.000906741673156123,3.41806448248433e-06,7.75049455774512e-07
-0.0029327036698284,-0.000907051617327429,7.02609624712654e-06,3.44486824872347e-09
-0.00292956846532634,-0.000909221226526572,9.75714184060855e-06,-1.72330916933166e-06
-0.00292782800959516,-0.000917542035433175,1.18072540520451e-05,-8.17128551180303e-06
-0.00292731540961953,-0.00092771058843795,1.36194179413997e-05,-1.85253740389085e-05
-0.00292388218187584,-0.0009366393647575,1.50494453560611e-05,-2.84644004021433e-05
-0.00292558687481802,-0.000946390685223978,1.50760924545916e-05,-3.60801029491032e-05
-0.00292791145610282,-0.000953960475561647,1.29737188058758e-05,-4.29705003620343e-05
-0.00293020027459861,-0.000959062633458533,9.77319056589042e-06,-4.89478022624497e-05
-0.00293309706050736,-0.000960373935721751,7.66630895249993e-06,-5.00643971826646e-05
-0.00293382423721696,-0.000956189689409118,7.50856753436081e-06,-4.41836707230813e-05
-0.00293298977214037,-0.000947272834019234,7.69445532792972e-06,-3.50081320412736e-05
-0.00293525474877684,-0.000938582476292996,6.2900743926037e-06,-2.74346554533174e-05
-0.00293728130681999,-0.00093299156027982,3.68803581456411e-06,-2.14000339355099e-05
-0.00294008272529141,-0.000927686746578619,1.99690916208645e-06,-1.38159776411289e-05
-0.00293973701833111,-0.00091733937962886,1.91134015867838e-06,-4.91805751817533e-06
-0.00294021385551774,-0.000910461003211796,1.47709124280196e-06,1.23904035043026e-06
-0.00294353979489444,-0.00091129546828839,-1.47500863388003e-06,2.30985370094882e-06
-0.0029493810504306,-0.00091303592401957,-6.55488393559359e-06,3.50281701280268e-07
-0.00295301693397861,-0.000914299542564126,-1.12765938592058e-05,-1.3688425889644e-06
-0.00295653360822997,-0.000913870389096164,-1.37881399517948e-05,-1.4858179752622e-06
-0.00295717733843191,-0.000913393551909539,-1.43025184329024e-05,1.5674408705641e-07
-0.00295684355240128,-0.00090947156604955,-1.41078324574838e-05,3.76093513957906e-06
-0.00295698660355726,-0.000904285961645005,-1.41444836377895e-05,8.61807640067829e-06
-0.00295799988257884,-0.000899696403723741,-1.46741030349602e-05,1.23988788140699e-05
-0.00295834558953915,-0.000899756008372069,-1.54494215943448e-05,1.29163753993307e-05
-0.00295945423599805,-0.000903308445412424,-1.57323282218535e-05,1.01073323262109e-05
-0.00295786875235252,-0.000905859524360867,-1.47298479172392e-05,5.50097567173259e-06
-0.00295611637569167,-0.000910890156679759,-1.25579946626873e-05,2.63279034129332e-07
-0.00295408981764852,-0.000917995030760469,-1.04166362028785e-05,-5.47457254062352e-06
-0.00295307653862694,-0.000923025663079361,-9.34956163849985e-06,-1.16215302355818e-05
-0.00295289772468196,-0.000927221830321659,-9.17243792172312e-06,-1.72695054169569e-05
-0.00295289772468196,-0.000931668337086936,-9.07457655670644e-06,-2.12488884124324e-05
-0.00295251625493266,-0.00093405252302006,-8.80095263854958e-06,-2.33443250975411e-05
-0.00295299309211928,-0.000933611448622432,-8.48663144346654e-06,-2.42986913486173e-05
-0.00295102613872445,-0.00093299156027982,-7.6586909754983e-06,-2.42039155668957e-05
-0.00294966715274257,-0.000930082853441408,-5.44177145181661e-06,-2.16478487443992e-05
-0.00294624584592854,-0.000924384649061242,-1.86550150884838e-06,-1.56408117759583e-05
-0.00294172781358527,-0.00091543203088236,1.92375704936046e-06,-7.98710489859835e-06
-0.00293928402300382,-0.000908577496324628,5.03141010672638e-06,-2.02306193893992e-06
-0.00293669718126638,-0.000905597263908223,7.63241130485222e-06,1.21149921441563e-06
-0.00293360966048298,-0.000902724319858808,1.0112297336801e-05,3.78479833000168e-06
-0.00293226259543077,-0.000897455268946604,1.21713609013248e-05,7.47261118091847e-06
-0.00293109434432354,-0.000893306785422968,1.32673955908901e-05,1.17208323235971e-05
-0.00293052213969959,-0.000888717227501704,1.33294760816966e-05,1.59950199018353e-05
-0.0029314877350025,-0.000882172637115278,1.2582104929927e-05,2.17660788513021e-05
-0.00293341892560833,-0.00087299352127275,1.12573671380863e-05,3.01317442589388e-05
-0.00293425339068493,-0.000864374689124506,9.86388503574545e-06,3.90869356190094e-05
-0.00293462293950456,-0.000856900266224162,8.99773757101554e-06,4.52398532910637e-05
-0.00293623226500942,-0.000855171731422647,8.43459178444991e-06,4.70469186182159e-05
-0.00293716209752334,-0.000857102922028477,7.32685667841138e-06,4.46889423444863e-05
-0.00293778198586595,-0.000862419656659344,5.91411273684277e-06,3.85422599042557e-05
-0.00293842571606789,-0.000871217302752572,5.84096304623675e-06,3.01124165627357e-05
-0.00293689983707069,-0.00087751155361602,7.62833842126729e-06,2.27429915971995e-05
-0.00293524282784717,-0.000881874613873637,8.96725706069452e-06,1.83693812027902e-05
-0.00293698328357835,-0.000885689311366636,7.28845621297702e-06,1.47326790485663e-05
-0.00294046419504071,-0.000890779548333856,3.41497204806549e-06,8.894258596048e-06
-0.00294430273439304,-0.000896799617814995,6.93922763550456e-07,2.37323974294171e-06
-0.00294358747861311,-0.000900697761815653,6.13721605638951e-07,-8.43605703113699e-07
-0.00294278877632551,-0.00090065007809699,1.23588525376721e-06,-6.8012512642512e-07
-0.00294463652042368,-0.000899565273497419,2.29993783437911e-07,-1.24976284223379e-06
-0.00294685381334149,-0.000904285961645005,-2.42844192899498e-06,-4.76014469016087e-06
-0.00294982212482823,-0.000909519249768212,-5.32457235089691e-06,-9.33550383597302e-06
-0.00295208710146469,-0.000912427956606624,-7.32076302858333e-06,-1.34959393617567e-05
-0.00295225399448001,-0.000917661244729831,-7.60167880761824e-06,-1.84887772161385e-05
-0.00295035856666318,-0.000925266797856498,-5.87131167644467e-06,-2.4841283003642e-05
-0.0029493452876416,-0.000930702741784021,-3.79850613305777e-06,-3.07178397852598e-05
-0.00294913071090762,-0.000935614164806257,-4.61295231588208e-06,-3.54978222998526e-05
-0.00295428055252317,-0.00094134813197542,-9.4028784848857e-06,-4.09068674213961e-05
-0.00296012180805932,-0.000947594699120205,-1.47338430810998e-05,-4.62587370176149e-05
-0.00296136158474455,-0.000948238429322149,-1.57361612444796e-05,-4.67711203399112e-05
-0.00295590179895769,-0.000941705759865389,-1.11196412639517e-05,-4.00854553746047e-05
-0.00294932144578227,-0.000933528002114773,-3.72494382949903e-06,-3.09835321515241e-05
-0.00294245499029487,-0.000928413923288221,3.23225549548058e-06,-2.55348151698414e-05
-0.0029375554882023,-0.000926995332658013,8.62388339330458e-06,-2.32970043134542e-05
-0.00293281095819539,-0.000923895890944951,1.23543790907732e-05,-1.97886336838653e-05
-0.00293196457218913,-0.0009191632818677,1.39349231446901e-05,-1.44378931479462e-05
-0.00293405073488061,-0.000916171128521629,1.29266764152645e-05,-1.06840587008367e-05
-0.00293587463711945,-0.000915527398319685,9.7078471129172e-06,-9.00534362798994e-06
-0.00294125097639864,-0.000912392193817627,5.15907648544979e-06,-5.45760241695643e-06
-0.00294626968778787,-0.000905597263908223,2.47347893080505e-07,1.86458608338719e-06
-0.00295065658990482,-0.000899159961888788,-3.84430619892498e-06,9.5738611605354e-06
-0.00295290964561162,-0.00089555984112977,-6.01984935951722e-06,1.42231895400904e-05
-0.00295252817586232,-0.000892329269190387,-6.13212317081691e-06,1.7387862660906e-05
-0.00295223015262068,-0.000887942367073438,-5.00467172551817e-06,2.30569543031453e-05
-0.00295081156199047,-0.000880241446509447,-3.40452002134554e-06,3.20447798667109e-05
-0.00294874924115832,-0.000871312670189897,-1.54446273392215e-06,4.12841186637313e-05
-0.00294654386917018,-0.00086569791231739,3.87253649931326e-07,4.76416163244821e-05
-0.00294567364130459,-0.000863742879852228,2.01984256899983e-06,5.07606244945497e-05
-0.00294473188786101,-0.000862860731056972,3.32659844559257e-06,5.25457595913727e-05
-0.00294253843680253,-0.00086109643346646,4.56052801981937e-06,5.47571607510259e-05
-0.00294240730657621,-0.000859832814921904,5.354816311148e-06,5.69215886951459e-05
-0.00294346826931645,-0.000861036828818132,4.66678795370115e-06,5.65304806898159e-05
-0.00294570940409359,-0.000866806558776293,2.09078816430431e-06,5.18399615532997e-05
-0.00294936912950093,-0.000874340586324965,-1.3751266699872e-06,4.41977796047423e-05
-0.00295213478518336,-0.000883007102191871,-4.32455598899068e-06,3.673559452867e-05
-0.00295429247345283,-0.000889551692578297,-6.18980498078809e-06,3.12570471469295e-05
-0.00295560377571605,-0.000892627292432027,-7.12827390659352e-06,2.76114755788755e-05
-0.00295492428272511,-0.000896227413191045,-7.30028648933102e-06,2.53554384113916e-05
-0.00295498388737344,-0.000898432785179185,-6.84207607217105e-06,2.39458503725334e-05
-0.00295435207810116,-0.000900292450207022,-6.08747475943781e-06,2.13760119865236e-05
-0.00295326727350159,-0.000908267552153322,-5.1822802982521e-06,1.48365618557156e-05
-0.00295170563171539,-0.000919580514405996,-3.77073085899822e-06,3.43867504784291e-06
-0.00294940489228993,-0.00093424325789471,-1.60810473004806e-06,-1.10526228184229e-05
-0.00294741409703577,-0.000949871596686339,8.15634247377547e-07,-2.6282563406978e-05
-0.00294491070180599,-0.000963878689043444,2.88012707832344e-06,-4.05020776281165e-05
-0.00294278877632551,-0.000976049958232043,4.85696503885037e-06,-5.18449857329936e-05
-0.00293998735785409,-0.000981891213768197,7.61353061050601e-06,-5.87758695991433e-05
-0.00293643492081373,-0.000985741674050192,1.12147904856573e-05,-6.20123765643986e-05
-0.00293321626980402,-0.000987970887897664,1.43811644691873e-05,-6.40646467601832e-05
-0.00293133276291685,-0.000988733827396263,1.5585946502807e-05,-6.59689797536653e-05
-0.00293277519540639,-0.000989115297145563,1.4390580434091e-05,-6.61541118132813e-05
-0.00293570774410413,-0.000986290036814811,1.15073548865046e-05,-6.33435040917345e-05
-0.00293889063232485,-0.000981140195199263,7.79256107768641e-06,-5.88194659896537e-05
-0.00294276493446618,-0.000975871144287058,3.5010179151332e-06,-5.48347136685482e-05
-0.00294812935281571,-0.000974273739711865,-1.39056552976779e-06,-5.24188681342647e-05
-0.00295240896656567,-0.000972211418879713,-6.31821518841829e-06,-5.1658248190347e-05
-0.00295584219430937,-0.000971746502622753,-9.99826462280649e-06,-5.21985724879359e-05
-0.00295721310122091,-0.000971603451466766,-1.15202064528737e-05,-5.20338476652902e-05
-0.00295707005006492,-0.000965833721508605,-1.14520121749141e-05,-4.7521353788726e-05
-0.00295643824079265,-0.000953996238350644,-1.13699049555648e-05,-3.65211828822204e-05
-0.00295717733843191,-0.000937974508880049,-1.21919231771551e-05,-2.07215123779532e-05
-0.00295827406396115,-0.000919115598149037,-1.34439091132156e-05,-3.73052519822093e-06
-0.00295834558953915,-0.000902879291944461,-1.42893836689749e-05,1.19133009322533e-05
-0.00295920389647507,-0.000889670901874953,-1.45747476415868e-05,2.47328203174179e-05
-0.00295788067328219,-0.000879919581408476,-1.43710717759725e-05,3.31416328816461e-05
