BCL,BCC,BCL_Filtered,BCC_Filtered
-,-,-,-
-9.24587304865557e-05,0.000340354462883142,-7.4432056751754e-22,3.04087041752789e-21
-9.36627443827834e-05,0.000327003021657647,-3.2765347524902e-06,-4.25948425581999e-06
-9.75966511724383e-05,0.000313687343221148,-6.38152355008426e-06,-1.90727615084251e-05
-9.98854696682375e-05,0.000300157088050669,-7.41470217595567e-06,-3.9426860373232e-05
-9.71198139858135e-05,0.000287532823534776,-5.55166439333701e-06,-4.70115957727557e-05
-8.8834767868207e-05,0.000274777428792562,-3.48256791084506e-06,-2.87756926933134e-05
-9.66429767991887e-05,0.000349712392670655,-4.11654368521517e-06,8.8722759572506e-06
-9.56177768479453e-05,0.000367295763927446,-6.37282130832926e-06,4.65827190745576e-05
-9.42230280770676e-05,0.000382077716712816,-7.09179079511106e-06,7.08954670922947e-05
-9.35435350861272e-05,0.000397515320629795,-5.95672198510426e-06,8.33370395529935e-05
-9.3078618829168e-05,0.000407421613181926,-5.61126559939842e-06,9.27136888256751e-05
-9.50694140833267e-05,0.000414788747715279,-7.42524095147644e-06,0.000103635404456288
-9.61899814718951e-05,0.000418460394052291,-9.7508378483356e-06,0.000113122739200092
-9.52959117469735e-05,0.000415992761611507,-1.05148309607759e-05,0.000114727534114721
-9.5152860590986e-05,0.000407171273658948,-9.82657610004728e-06,0.00010590731274457
-9.59754047379139e-05,0.000396645092764204,-9.73716715439114e-06,9.37142796886438e-05
-9.72747860714666e-05,0.000387585186218332,-1.18947619675307e-05,8.9511629065102e-05
-9.66191349398574e-05,0.000378704093617445,-1.48045581140571e-05,9.23471982739683e-05
-9.58919582302545e-05,0.000369393847548595,-1.35422601539387e-05,8.27914712912647e-05
-9.48429164196799e-05,0.000359511396855795,-4.41627522369169e-06,4.48362182266248e-05
-6.66856805494833e-05,0.000252282634513535,9.30606321440214e-06,-7.76998229563024e-06
-6.50763550446245e-05,0.00024979116021342,1.9052634060378e-05,-4.14063690783379e-05
-6.42657318273623e-05,0.000248944774207161,1.99969915553484e-05,-4.17599901797732e-05
-6.57558480355649e-05,0.000248515620739199,1.58563792643738e-05,-2.88654687043571e-05
-6.73770944700893e-05,0.000246262565032397,1.27260861547167e-05,-2.71019762863847e-05
-7.06076664094726e-05,0.000243723407013619,1.13269214951574e-05,-3.54084869573318e-05
-7.32183500062436e-05,0.000239956393239283,8.65917659834598e-06,-3.85945344627385e-05
-7.6317791719305e-05,0.00023691655617455,4.58679562291698e-06,-3.47886902057063e-05
-7.76648567715202e-05,0.000234687342327079,2.17397500206354e-06,-3.45528962926558e-05
-7.77483032791795e-05,0.000231814398277664,2.55649282385082e-06,-3.96193046853432e-05
-7.75218056155327e-05,0.000230753435537424,3.75019173577808e-06,-4.03674001756986e-05
-7.5721745236024e-05,0.000233829035391154,4.31106127038425e-06,-3.34768270930634e-05
-7.47799917924399e-05,0.000237989439844456,4.41082979193975e-06,-2.69558028976951e-05
-7.66754196092736e-05,0.000240385546707245,3.27187574940388e-06,-2.58545882940355e-05
-8.13722658975283e-05,0.00024105311876852,-6.98950411884373e-07,-2.5507822541298e-05
-8.59260610297955e-05,0.000242233290805417,-6.4792056748505e-06,-2.18829633195059e-05
-8.92996841251662e-05,0.000244545951160547,-1.02998660444113e-05,-1.80161352711434e-05
-9.02295166390846e-05,0.000246477141766378,-1.00552048390243e-05,-1.66495597966866e-05
-8.77499632686355e-05,0.000248646750965521,-7.58036053808514e-06,-1.55885023726032e-05
-8.50796750235364e-05,0.000249409690464121,-5.88043081641419e-06,-1.4105066225223e-05
-8.59379819594611e-05,0.000245356574377809,-6.2173075896081e-06,-1.58718808360749e-05
-8.86201911342258e-05,0.000241255774572836,-8.33407805480824e-06,-2.16178883709092e-05
-9.11831910123343e-05,0.000238275542156431,-1.12175180166981e-05,-2.62423849606605e-05
-9.28521211655212e-05,0.000236654295721906,-1.29162253088975e-05,-2.74511130590586e-05
-9.19938142295965e-05,0.000232529654057601,-1.1612676128008e-05,-3.03214344781113e-05
-8.82506423145915e-05,0.000226366533420475,-7.61742092881271e-06,-3.81292710640508e-05
-8.34345867296807e-05,0.000222575677786808,-2.82632360989879e-06,-4.45471311638735e-05
-7.87973450897542e-05,0.000225520147414216,1.77512880992196e-06,-4.11777904038601e-05
-7.57098243063583e-05,0.000237441077079837,6.12727686818268e-06,-2.91851297361261e-05
-7.18355221650316e-05,0.000250637546219679,8.93288780292338e-06,-1.77841166978388e-05
-7.3456768599556e-05,0.000257539764496074,8.38841195678278e-06,-1.34282297549484e-05
-7.64012382269644e-05,0.000257420555199418,5.71202483866163e-06,-1.52659654427854e-05
-7.68899963432548e-05,0.000251066699687642,5.13993353757726e-06,-1.96190542214934e-05
-7.38620802081871e-05,0.000250387206696701,9.0438488202895e-06,-2.41947550866548e-05
-6.72817270327644e-05,0.000250375285767036,1.51425280269374e-05,-2.79202747977312e-05
-6.36816062737469e-05,0.000246965899882668,1.97946331760391e-05,-3.00144026752618e-05
-6.17384947382506e-05,0.000248765960262177,2.20697454439853e-05,-3.00646163610177e-05
-6.05225599123573e-05,0.000254428401853347,2.32177510538687e-05,-2.77806584117659e-05
-5.9902671569745e-05,0.000261759773597704,2.40258126875601e-05,-2.28801324577616e-05
-6.07252157166729e-05,0.000268828884889417,2.4397306549253e-05,-1.58843018943196e-05
-6.10590017473103e-05,0.000279176251839176,2.4123732485356e-05,-8.06478721974255e-06
-6.23345412215317e-05,0.000290584581529175,2.24529439510837e-05,-3.67552719487351e-09
-6.77943270083861e-05,0.000299954432246353,1.80637707685607e-05,8.45451716614601e-06
-7.54833266427115e-05,0.000310051459673134,1.10427837549754e-05,1.64292194230795e-05
-8.22544146927842e-05,0.000318968315063018,3.90335666092456e-06,2.23539205737262e-05
-8.76784376906417e-05,0.000324475784568535,-9.86426480654849e-07,2.71466077791929e-05
-9.14454514649779e-05,0.000334966202674282,-4.35856415460184e-06,3.45565400378535e-05
-9.6726423306848e-05,0.000348782560156736,-8.93541215976101e-06,4.61294800550054e-05
-0.000103294855552605,0.000361251852586976,-1.57107588019339e-05,5.74131147005154e-05
-0.000110542780789303,0.000367701075536077,-2.26468961038693e-05,6.17973295439563e-05
-0.000115430361952207,0.000366008303523559,-2.7007739395049e-05,5.77768119298505e-05
-0.000116872794441747,0.00036085846190801,-2.79698505548952e-05,5.04389798001182e-05
-0.00011539459916321,0.000357174894641333,-2.6819831973566e-05,4.57375352165161e-05
-0.000114405162000964,0.000357520601601636,-2.5285968890034e-05,4.4828479653462e-05
-0.000113391882979386,0.000360083601479745,-2.39477728427419e-05,4.42768925619332e-05
-0.000111508376092218,0.00035710336906334,-2.20644977349605e-05,4.04701157610373e-05
-0.000108587748324141,0.000350546857747248,-1.87852621539737e-05,3.29920211104686e-05
-0.000103878981106221,0.000343298932510551,-1.42823313989407e-05,2.42666980765777e-05
-9.96947347935876e-05,0.000337731858356706,-9.51562036344678e-06,1.69069553229048e-05
-9.53078326766391e-05,0.000333595295762735,-5.31490243755922e-06,1.17467524827107e-05
-9.22679956119058e-05,0.000330007095933383,-2.15173126003728e-06,7.88357351085767e-06
-9.04321724434002e-05,0.000326681156556675,-1.97614830530086e-07,3.71810837705039e-06
-8.89778190241944e-05,0.000322532673033039,1.20122539636469e-06,-2.1950264268192e-06
-8.69274191217076e-05,0.000314366836212089,3.34943662095894e-06,-1.03128973042482e-05
-8.38875820569743e-05,0.000305390376173876,6.22813383516796e-06,-1.92260913200059e-05
-8.27789355980715e-05,0.00029950143691906,7.45262198805656e-06,-2.60129180719642e-05
-8.51750424608613e-05,0.000297343748649582,5.06567166406885e-06,-2.83278377806587e-05
-8.85248236969008e-05,0.000299680250864044,9.32937067584535e-07,-2.61818144415944e-05
-9.13024003089905e-05,0.000303983706473333,-9.38587424629317e-07,-2.14107875490618e-05
-8.93116050548318e-05,0.000308871287636238,5.32641899597079e-07,-1.58659811246448e-05
-8.62956098494297e-05,0.000314950961765704,2.68572110545405e-06,-1.0599630568207e-05
-8.57234052254799e-05,0.000318634529032381,3.754408065607e-06,-6.21483891916885e-06
-8.45670750479147e-05,0.000319755096420949,5.2658749152256e-06,-3.13330816812731e-06
-7.987022875966e-05,0.000321638603308118,8.45755598032506e-06,-1.56477042128115e-06
-7.70926521475704e-05,0.000321614761448786,1.13301783391463e-05,-1.4935451862735e-06
-7.72595451628891e-05,0.000318455715087397,1.17120913113262e-05,-2.3021527798746e-06
-7.7354912600214e-05,0.00031716825468351,1.09097383189269e-05,-2.33662647728583e-06
-7.59124801106739e-05,0.000320088882451587,1.12091114970158e-05,1.1866049753837e-07
-7.65442893829518e-05,0.000322294254439727,1.12134968760594e-05,4.84058888289145e-06
-8.05854845395973e-05,0.000325441379871451,7.10014595377272e-06,9.61364134880137e-06
-8.82506423145915e-05,0.000327992458819893,-1.81657152734213e-06,1.28794663880237e-05
-9.80019627810694e-05,0.000328815002966821,-1.17615153685967e-05,1.5340707778338e-05
-0.000105488306611079,0.000329315682012777,-1.89187641587373e-05,1.8014652861536e-05
-0.000108528143675813,0.000329983254074052,-2.26352347099215e-05,2.00517513373419e-05
-0.000108706957620797,0.000328516979725181,-2.38844298392387e-05,2.01468190449293e-05
-0.000108587748324141,0.000325512905449444,-2.31035228850762e-05,1.9259490105252e-05
-0.000105190283369439,0.000324392338060876,-2.06103788685435e-05,1.99583652317161e-05
-0.000101399427735771,0.000325834770550416,-1.73044026112784e-05,2.31195416487744e-05
-9.79304372030757e-05,0.000327241440250959,-1.37282766115834e-05,2.67492479160979e-05
-9.26137025722088e-05,0.000327217598391628,-9.50969211319774e-06,2.81090729721309e-05
-8.78334097762948e-05,0.000322318096299058,-4.43985245633201e-06,2.58528550008698e-05
-8.19683123808093e-05,0.000315058250132695,8.82251772987163e-07,2.02795387474912e-05
-7.63058707896394e-05,0.000306046027305485,5.87939328874567e-06,1.28824843788038e-05
-7.14898152047285e-05,0.000296580809150982,1.04085601143683e-05,5.74943025652698e-06
-6.79254572347079e-05,0.000288975256024316,1.419199511738e-05,1.44459926717047e-07
-6.39200248670593e-05,0.000282442586567556,1.71968432059798e-05,-4.63986200285119e-06
-6.00338017960669e-05,0.000275266186908852,2.069554804928e-05,-1.01757430643955e-05
-5.49316438991811e-05,0.000266695038479271,2.6071209690556e-05,-1.66191232130527e-05
-4.84347372314177e-05,0.000258934513266952,3.19317409156984e-05,-2.24741062040896e-05
-4.55498722523375e-05,0.000253129020519794,3.44070387925658e-05,-2.66906864744249e-05
-4.79698209744585e-05,0.000248372569583212,3.1602384094401e-05,-3.00102293057697e-05
-5.36322625656284e-05,0.000242853179148029,2.61320865156767e-05,-3.39299102754439e-05
-5.78045879485958e-05,0.000235247626021363,2.17006736055682e-05,-3.89640390771892e-05
-5.97238576247607e-05,0.000229966654179493,1.85922102740028e-05,-4.40250676501625e-05
-6.46948852953246e-05,0.000225508226484551,1.44378249676385e-05,-4.7000497162602e-05
-7.05599826908101e-05,0.000224113477713673,8.38151947850791e-06,-4.61488867625677e-05
-7.56740615173615e-05,0.000227975858925334,2.18609945688294e-06,-4.17247876940144e-05
-8.08000612735785e-05,0.000232267393604958,-2.49742500067988e-06,-3.61516327386343e-05
-8.40663960019586e-05,0.000236010565519963,-5.78126545897175e-06,-3.17854013470733e-05
-8.60691121857829e-05,0.000238013281703787,-8.18372350218933e-06,-2.84701251441074e-05
-8.72731260820106e-05,0.000240731253667548,-9.51520314039207e-06,-2.39625686492181e-05
-8.74280981676637e-05,0.000249195113730139,-9.93277087879063e-06,-1.67592193083092e-05
-8.88943725165351e-05,0.000256359592459177,-1.07982368577956e-05,-7.95509473142402e-06
-9.100437706735e-05,0.0002625584758853,-1.34386385665278e-05,-4.46161992327432e-07
-9.44972094593769e-05,0.000266706959408936,-1.75766887098002e-05,3.29695928508045e-06
-9.98497068792407e-05,0.000267028824509908,-2.16237891187901e-05,3.26022404196912e-06
-0.000101840502133399,0.000264728085084443,-2.42635502222116e-05,2.53492851214587e-06
-0.000102424627687015,0.000267994419812823,-2.55117955835077e-05,5.32281756491741e-06
-0.000104606157815823,0.000275778786884474,-2.64824654160591e-05,1.30794320843687e-05
-0.000105643278696732,0.000286114232904567,-2.80316891514185e-05,2.29771618639379e-05
-0.000107026106537944,0.000294172781358527,-2.92157774568982e-05,3.13274510970308e-05
-0.000104868418268467,0.000300836581041609,-2.7469578035071e-05,3.7821957892662e-05
-9.95516836376002e-05,0.000308334845801285,-2.12520497983955e-05,4.44286396038405e-05
-9.07063538257094e-05,0.000315141696640354,-1.23620116390494e-05,5.0361867875924e-05
-8.22186519037874e-05,0.00031496288269537,-4.44554280295779e-06,5.10046582053705e-05
-7.73072288815516e-05,0.000309240836455872,9.28297707135298e-07,4.32751162208069e-05
-7.36594244038716e-05,0.000296783464955298,5.42640861753269e-06,3.0106306366291e-05
-6.79969828127016e-05,0.000284051912072415,1.08686257338115e-05,1.74990801836111e-05
-6.15835226525976e-05,0.000276577489172071,1.65546869404803e-05,8.09014056564239e-06
-5.88893925481673e-05,0.000269091145342061,2.06492414679116e-05,-2.41874743964357e-07
-5.71846996059835e-05,0.000260269657389501,2.2849488215733e-05,-9.79285383906868e-06
-5.49078020398499e-05,0.000251865401975238,2.41173858094782e-05,-1.95150379078079e-05
-5.49554857585124e-05,0.000246119513876409,2.46296570902514e-05,-2.68851939504669e-05
-5.68389926456805e-05,0.000242424025680067,2.38197763794696e-05,-3.13831938838833e-05
-5.86032902361924e-05,0.00024105311876852,2.2123758565589e-05,-3.43796863384904e-05
-5.92350995084703e-05,0.000240230574621592,2.07663342729212e-05,-3.63658385740274e-05
-6.12854994109571e-05,0.000241971030352773,1.9589166029626e-05,-3.62652076171742e-05
-6.49809876072995e-05,0.000246167197595072,1.68946361478446e-05,-3.38309041012704e-05
-6.93440478649168e-05,0.000249755397424423,1.21109046641796e-05,-3.11588478307872e-05
-7.43269964651463e-05,0.00025169850895992,6.97380037233801e-06,-3.0689904323287e-05
-7.91072892610603e-05,0.000252473369388185,2.98447626312422e-06,-3.23750309988883e-05
-8.38756611273087e-05,0.000252413764739857,-8.8439717169749e-07,-3.37940944324922e-05
-8.88705306572038e-05,0.000253748908862407,-6.37836939434218e-06,-3.25816610381108e-05
-9.51290187316548e-05,0.000261962429402019,-1.27515144530834e-05,-2.76807144239721e-05
-0.00010050535801085,0.000272583977734088,-1.7159810563728e-05,-1.87701224887276e-05
-0.000102186209093702,0.000284981744586333,-1.80224599731284e-05,-6.31497261846386e-06
-9.97781813012469e-05,0.000301337260087565,-1.6389658929738e-05,7.32859031430515e-06
-9.6976762829826e-05,0.000314021129251786,-1.38995846389111e-05,1.85066762969785e-05
-9.61661396125638e-05,0.000322628040470364,-1.09207453645285e-05,2.52919276350868e-05
-9.17434747066185e-05,0.000326943417009319,-7.19878158522621e-06,2.92402438057995e-05
-8.69989446997013e-05,0.000333106537646445,-3.09248504144756e-06,3.30720455428887e-05
-8.41975262282804e-05,0.00033878090016728,5.53642239413094e-07,3.70419345454998e-05
-8.28385402463996e-05,0.000340902825647761,3.0183622739036e-06,3.85911564481413e-05
-8.10265589372253e-05,0.000339555760595546,3.82788333544366e-06,3.53957441901485e-05
-8.16464472798376e-05,0.000333178063224439,3.15115355160511e-06,2.79768891954343e-05
-8.33988239406838e-05,0.000326025505425066,2.35649468098581e-06,1.94598356731841e-05
-8.29935123320527e-05,0.000321209449840155,3.04470765879173e-06,1.33938506949224e-05
-8.00967264233068e-05,0.000320136566170249,5.03636178736302e-06,1.15173108512903e-05
-7.90476846127322e-05,0.000322592277681367,6.53362978028289e-06,1.27913453064026e-05
-7.91072892610603e-05,0.000325012226403488,6.90329361405518e-06,1.44654587868002e-05
-7.82728241844668e-05,0.000326430817033697,7.78439182708254e-06,1.44623525230198e-05
-7.51018568934117e-05,0.000324916858966163,1.02658974785967e-05,1.26600305727024e-05
-7.30872197799217e-05,0.000322270412580395,1.2475990875954e-05,9.71841329788041e-06
-7.45058104101306e-05,0.000319612045264962,1.18386879528615e-05,5.34949415182168e-06
-7.66992614686049e-05,0.000312662143269905,8.74018571962827e-06,-1.37691212468921e-06
-7.94410752916977e-05,0.000304329413433636,5.82253061751387e-06,-1.01602174903692e-05
-8.14795542645189e-05,0.000296187418472017,4.15961524197317e-06,-1.87053013923828e-05
-8.32200099956995e-05,0.000291085260575131,2.439652611787e-06,-2.41779505141303e-05
-8.49843075862114e-05,0.000290226953639206,-8.58358134853715e-08,-2.53567188820675e-05
-8.716583771502e-05,0.00029163362333975,-2.26996770292832e-06,-2.33737404678038e-05
-8.86321120638914e-05,0.00029519798130977,-3.38039915700838e-06,-2.02339449552769e-05
-8.918047482851e-05,0.000299048441591766,-4.7043916444904e-06,-1.64137192500716e-05
-9.2136865385584e-05,0.000304222125066645,-7.73280323068422e-06,-1.04509188341558e-05
-9.66072140101918e-05,0.000313162822315861,-1.21561547636322e-05,-1.81485687055119e-06
-0.0001003146231362,0.000320303459185568,-1.66231727302421e-05,6.33463080186416e-06
-0.000104331976433514,0.000322973747430667,-2.02655220744912e-05,9.14168832527417e-06
-0.000106179720531685,0.0003188014220477,-2.26636112509269e-05,5.37730435863989e-06
-0.00010674000422597,0.000311303157288024,-2.36359210030361e-05,-8.34024269784054e-07
-0.000106942660030285,0.000307524222584022,-2.40634044890306e-05,-4.41242771380715e-06
-0.000108981139003106,0.000307166594694054,-2.57086381410785e-05,-3.8078648160528e-06
-0.000111293799358237,0.000309610385275506,-2.90616279452066e-05,-1.36538667894985e-07
-0.00011414290154832,0.000315225143148013,-3.22407726888219e-05,5.9082947430848e-06
-0.000115406520092876,0.000321972389338755,-3.29095092414084e-05,1.39451644847361e-05
-0.000112056738856836,0.00032849313786585,-3.03378859838671e-05,2.20473307870957e-05
-0.000106298929828342,0.000333738346918723,-2.48898978379768e-05,2.77716822073231e-05
-9.80377255700663e-05,0.0003358960351882,-1.68719739322495e-05,3.09076263669589e-05
-8.84413771892415e-05,0.000335681458454219,-7.04054797372944e-06,3.32625064993286e-05
-7.82609032548012e-05,0.000338149090895003,2.93032138853539e-06,3.59641106138556e-05
-6.85572665069858e-05,0.000339615365243874,1.16283204498039e-05,3.86535039750112e-05
-6.25729598148441e-05,0.000339651128032871,1.84423953578481e-05,4.06807584472521e-05
-5.85436855878642e-05,0.000338602086222296,2.21758105202835e-05,4.1015527170204e-05
-5.91039692821484e-05,0.000334334393402004,2.11269926190064e-05,3.76981164697849e-05
-6.42776527570279e-05,0.000325167198489141,1.61251992273501e-05,3.00724272081843e-05
-6.93321269352512e-05,0.000314474124579079,1.13215993838073e-05,2.12237541055302e-05
-7.06434291984695e-05,0.00030728580399071,9.46817910141626e-06,1.50275312051822e-05
-7.22765965626595e-05,0.000301218050790909,8.22087212222249e-06,1.04463765175559e-05
-7.66992614686049e-05,0.000291001814067472,4.30366530025286e-06,2.21455921781817e-06
-7.99179124783225e-05,0.000277018563569699,-4.17774864679234e-08,-1.14976112905973e-05
-7.98583078299944e-05,0.00026100875502877,1.15854786297185e-06,-2.53156709757083e-05
-7.20500988990127e-05,0.000251877322904904,9.45176231820277e-06,-3.27293468314992e-05
-6.12854994109571e-05,0.000250792518305333,1.952233095456e-05,-3.34361935346398e-05
-5.50985369144998e-05,0.000251042857828311,2.57515494163946e-05,-3.21220512988742e-05
-5.49793276178436e-05,0.000248658671895186,2.7699873082909e-05,-3.20036400939728e-05
-5.41925462599126e-05,0.000247132792897987,2.77689463472871e-05,-3.27426444291525e-05
-5.50031694771748e-05,0.000246644034781696,2.69038568505609e-05,-3.36025956143468e-05
-5.78761135265895e-05,0.000242733969851373,2.49836423765248e-05,-3.50576900423886e-05
-6.11186063956384e-05,0.000239646449067977,2.29657412810339e-05,-3.68142438363154e-05
-6.12020529032977e-05,0.000239896788590955,2.19225286492109e-05,-3.69493503112235e-05
-6.29901923531408e-05,0.000241529955955145,2.12620820767699e-05,-3.41495041899249e-05
-6.49571457479683e-05,0.000245475783674466,1.98923394160757e-05,-2.91503818041297e-05
-6.78181688677173e-05,0.000250720992727339,1.79381434532817e-05,-2.30404704784265e-05
-6.99639362075291e-05,0.000258314624924339,1.57010356781989e-05,-1.5644955442569e-05
-7.37547918411965e-05,0.00026648046174529,1.24741137831922e-05,-6.88919486785273e-06
-7.94649171510289e-05,0.000273740307911653,8.30307088124078e-06,1.30700708524748e-06
-8.23378612004436e-05,0.000279104726261182,5.39344084451056e-06,6.31444664731281e-06
-8.28027774574028e-05,0.00028030874015741,5.39554097706986e-06,8.0140587981e-06
-8.31365634880402e-05,0.000281608121490963,6.34728264745699e-06,9.26210226694413e-06
-8.50558331642051e-05,0.000285339372476302,4.81589581655315e-06,1.2461754235138e-05
-8.98599678194504e-05,0.000288915651375988,5.04058134834207e-07,1.67850192892464e-05
-9.53197536063047e-05,0.000292468088416343,-3.68090966636933e-06,1.99881904518409e-05
-9.74416790867852e-05,0.000296366232417001,-5.84355186629841e-06,2.20822603624928e-05
-9.97304975825845e-05,0.000297963636992194,-6.92367166350068e-06,2.50010596766698e-05
-0.000101614004469753,0.000302290934460815,-8.17673441021667e-06,2.83639189373269e-05
-0.000103282934622939,0.000303697604161358,-9.30479391077694e-06,2.8099773003126e-05
-0.000104427343870839,0.000296306627768673,-9.97805672769523e-06,2.10792874904541e-05
-0.000106835371663295,0.000285875814311255,-1.125299753383e-05,9.46333191230288e-06
-0.000109994418024684,0.000275754945025143,-1.40301510423677e-05,-1.84240832989634e-06
-0.00011327267368273,0.000267481819837202,-1.71072682685697e-05,-1.10028088465876e-05
-0.000115549571248863,0.000259029880704277,-1.81415533342043e-05,-1.99045279272743e-05
-0.000113999850392333,0.00025169850895992,-1.63999171212506e-05,-2.95625747810604e-05
-0.000111818320263524,0.000244331374426566,-1.37748856141048e-05,-3.7984196963006e-05
-0.000111293799358237,0.000238943114217705,-1.2904398507116e-05,-4.31384527899994e-05
-0.000113904482955008,0.00023950339791199,-1.45464597045645e-05,-4.53603729631802e-05
-0.00011653900841111,0.000241732611759461,-1.70457909629066e-05,-4.57944612282084e-05
-0.000117444999065697,0.000241446509447486,-1.83852481394217e-05,-4.46446194229718e-05
-0.000118625171102594,0.000246632113852031,-1.81630060396795e-05,-4.18996446691534e-05
-0.000117588050221685,0.000254499927431341,-1.68783536699869e-05,-3.76117559802301e-05
-0.000113892562025342,0.000261569038723054,-1.40789636396242e-05,-3.05928890037757e-05
-0.00010962486920505,0.000272893921905394,-9.18544620906572e-06,-1.9511729151947e-05
-0.000105714804274726,0.000289356725773616,-4.2856646229736e-06,-6.75863895839494e-06
-0.000104272371785186,0.00029960872528605,-3.46984260027144e-06,1.63798734601524e-06
-0.000107395655357579,0.000300395506643981,-7.69178638078533e-06,2.41257787399566e-06
-0.000113737589939689,0.000299370306692738,-1.22769769216409e-05,-7.48308573883536e-07
-0.000112843520214767,0.000300323981065987,-1.19623067515471e-05,-1.88721467990547e-06
-0.000107014185608279,0.000304925459916917,-7.23119000872426e-06,5.70469582691271e-07
-0.000103282934622939,0.000309503096908515,-3.11027607925766e-06,4.91044086916999e-06
-0.000102889543943974,0.000318026561619434,-2.51221093675102e-06,1.15480374745402e-05
-0.00010300875324063,0.000331330319126267,-3.7044470892683e-06,2.25406556195095e-05
-0.000103664404372239,0.000345993062614981,-4.22128949149232e-06,3.60608649072684e-05
-0.000102567678843002,0.000357079527204008,-4.10219537388211e-06,4.62044642799268e-05
-0.000102853781154977,0.000362145922311897,-4.29478452668203e-06,4.9749320187004e-05
-0.000102508074194674,0.000363540671082775,-4.43147779559376e-06,4.95073618978166e-05
-0.000100862985900818,0.000364553950104353,-3.79353349892574e-06,4.91878768303002e-05
-9.9587446426597e-05,0.000364041350128731,-2.89257794153487e-06,4.81223474042354e-05
-9.87887441390004e-05,0.000360691568892692,-2.65007187863628e-06,4.35582449284559e-05
-9.85860883346849e-05,0.000354206583154594,-2.94201742562654e-06,3.56872012192791e-05
-9.77277813987602e-05,0.000346505662590603,-2.86297609811209e-06,2.72204787384163e-05
-9.51886233799829e-05,0.000339067002479255,-1.61544609986682e-06,1.9209127574621e-05
-9.23395211898995e-05,0.000330936928447302,1.2608976191638e-06,1.04491133888832e-05
-8.76307539719793e-05,0.000322318096299058,5.36729116555919e-06,9.29742101960805e-07
-8.25524379344247e-05,0.000315225143148013,8.84675790775351e-06,-6.85833246355765e-06
-8.09669542888972e-05,0.000310885924749727,9.90956349420944e-06,-1.08835676954494e-05
-8.0847744992241e-05,0.000310623664297084,9.57967105405449e-06,-1.20696612053884e-05
-7.87019776524292e-05,0.000309467334119519,1.11767491892237e-05,-1.28496278797806e-05
-7.19904942506846e-05,0.000308644789972591,1.60562291705585e-05,-1.44045172087325e-05
-6.60777131365367e-05,0.000306391734265788,2.15239590183909e-05,-1.63866995460116e-05
-6.3550476047425e-05,0.00030325652976373,2.42464536900089e-05,-1.859700858866e-05
-6.17146528789194e-05,0.000300991553127262,2.41121414366789e-05,-2.15650788904055e-05
-6.19769133315631e-05,0.00029691459518162,2.30912971039086e-05,-2.53026641903156e-05
-6.33358993134439e-05,0.000292527693064671,2.17687678988491e-05,-2.83964137765231e-05
-6.44803085613435e-05,0.000291681307058412,1.91852380726703e-05,-2.90411710431236e-05
-6.79254572347079e-05,0.000293409841859927,1.52402903477793e-05,-2.68395445666689e-05
-7.13706059080723e-05,0.000296366232417001,1.09416819217044e-05,-2.30417899787277e-05
-7.52687499087304e-05,0.000299489515989394,6.49627400718022e-06,-1.88217556567535e-05
-7.96794938850101e-05,0.000303316134412058,1.2276330192907e-06,-1.37578219220815e-05
-8.48889401488864e-05,0.000310134906180793,-4.47208898180714e-06,-6.55586265806104e-06
-8.87632422902132e-05,0.000318110008127094,-8.93900303290724e-06,2.8428883429745e-06
-9.04083305840689e-05,0.000326192398440385,-1.13725205832418e-05,1.25816998514622e-05
-9.09805352080187e-05,0.000333297272521095,-1.26356626674623e-05,2.06929884728765e-05
-9.2041497948259e-05,0.000338757058307949,-1.34921975478595e-05,2.71326403282094e-05
-9.10997445046749e-05,0.000342643281378942,-1.35445594031083e-05,3.33852796017936e-05
-8.91447120395131e-05,0.00034885408573473,-1.26099246330336e-05,4.01678802443081e-05
-8.90255027428569e-05,0.000352847597172713,-1.17822747573589e-05,4.63034426894163e-05
-8.85963492748945e-05,0.000355100652879515,-1.20728415587793e-05,5.02252345712441e-05
-8.86559539232227e-05,0.000355649015644134,-1.29195286801459e-05,5.19116775874909e-05
-8.87870841495445e-05,0.000354349634310581,-1.3159815848479e-05,5.24616522014192e-05
-8.85963492748945e-05,0.00035173895071381,-1.28785776560035e-05,5.20246730770222e-05
-8.8739400430882e-05,0.00034760238811984,-1.30875363371178e-05,4.93847707081694e-05
-8.83698516112477e-05,0.000341308137256392,-1.37477877260966e-05,4.40379475439545e-05
-8.82268004552603e-05,0.000332093258624867,-1.32884837673951e-05,3.75203894266105e-05
-8.59618238187923e-05,0.000324130077608232,-1.04654469071281e-05,3.157147682311e-05
-8.05497217506004e-05,0.000317895431393113,-5.90261362277733e-06,2.57178274365368e-05
-7.57932708140177e-05,0.000307774562107,-1.11590016921723e-06,1.81600181842175e-05
-7.12752384707474e-05,0.000296330469628004,3.59378204497326e-06,8.76940851237249e-06
-6.6065792206871e-05,0.000286114232904567,9.31079329592917e-06,-6.10060523043516e-07
-5.8615211165858e-05,0.000275313870627515,1.627467148996e-05,-9.26292489402046e-06
-5.23448021617414e-05,0.000264227406038487,2.23686759984771e-05,-1.91612074682574e-05
-5.08308440942075e-05,0.000249362006745458,2.4976188106651e-05,-3.21105853435901e-05
-5.12480766325043e-05,0.000233578695868176,2.42735340704884e-05,-4.64885526380463e-05
-5.20944626387633e-05,0.000220465673235993,2.34056722174335e-05,-5.83757528883494e-05
-5.09500533908637e-05,0.00021233559920404,2.47290072265058e-05,-6.53589703392969e-05
-4.98175650726297e-05,0.000208151352891407,2.68606359040392e-05,-6.77758875659435e-05
-4.99129325099547e-05,0.00020765067384545,2.65174314725279e-05,-6.67172645829808e-05
-5.3489211409641e-05,0.000212121022470058,2.26135496405494e-05,-6.28199539427812e-05
-6.02245366707168e-05,0.000214803231644823,1.71910736004102e-05,-5.74772647289529e-05
-6.51598015522838e-05,0.000217974198935878,1.2636147486105e-05,-5.33348806774185e-05
-6.72578851734331e-05,0.000219750417456056,9.60557622474918e-06,-5.19435580970508e-05
-7.01665920118446e-05,0.000218927873309128,7.84406439850106e-06,-5.14442945177506e-05
-7.18593640243628e-05,0.000220906747633621,7.18724391581374e-06,-4.80117253741254e-05
-7.13229221894099e-05,0.000229346765836881,6.77225277473162e-06,-3.98985684427543e-05
-7.40766569421683e-05,0.000239706053716305,4.7345701547311e-06,-2.92447454931363e-05
-7.92980241357102e-05,0.000248503699809533,1.95131083805166e-07,-1.94309467676095e-05
-8.53180936168488e-05,0.000256466880826168,-5.30672764888651e-06,-1.12430943708996e-05
-8.93950515624911e-05,0.000265550629231371,-9.86091209555058e-06,-2.50130020973081e-06
-9.41038187804114e-05,0.000276577489172071,-1.3966664441296e-05,8.60555790251553e-06
-0.000100231176628541,0.000288236158385048,-1.94026223745775e-05,2.08557905767472e-05
-0.000106894976311623,0.000299370306692738,-2.55572559687046e-05,3.12272896985461e-05
-0.000109589106416053,0.000306200999391138,-2.91358980366343e-05,3.7930544187501e-05
-0.000109851366868697,0.000309729594572162,-2.83318865524511e-05,4.11411729561108e-05
-0.000107681757669554,0.000310492534070762,-2.55205866250279e-05,4.13735355641902e-05
-0.000106501585632657,0.000308299083012288,-2.44452985449381e-05,3.8967471025507e-05
-0.000107395655357579,0.000305879134290167,-2.58052107676136e-05,3.54195207057011e-05
-0.000109505659908394,0.000304293650644639,-2.69771946700972e-05,3.31209288504734e-05
-0.000108528143675813,0.000303804892528349,-2.53082876509742e-05,3.23063977921725e-05
-0.000102865702084643,0.000302529353054127,-2.02533396251126e-05,2.96436356853072e-05
-9.51886233799829e-05,0.000295436399903083,-1.28598592628649e-05,2.19104377527712e-05
-8.84771399782383e-05,0.00028588773524092,-4.90345277782403e-06,1.06660134449728e-05
-8.23497821301092e-05,0.000277173535655352,1.41370327382092e-06,1.3222955544533e-06
-7.82489823251356e-05,0.000273621098614997,4.55350216254864e-06,-2.62980789656062e-06
-7.79748009428263e-05,0.000276696698468727,5.14625643825999e-06,-2.78284769031298e-06
-7.8833107878751e-05,0.00027704240542903,5.50917886143181e-06,-2.71916136330115e-06
-7.64608428752925e-05,0.000276482121734746,7.13724962212714e-06,-3.51772042653521e-06
-7.37547918411965e-05,0.00027924777741717,9.30373251839434e-06,-3.77360052920851e-06
-7.36832662632028e-05,0.000281608121490963,1.0405902388241e-05,-3.15536711629323e-06
-7.41839453091589e-05,0.000280535237821057,9.92677703228445e-06,-4.0009059502801e-06
-7.46011778474556e-05,0.000277996079802279,8.70806317849876e-06,-8.75474669475048e-06
-7.61389777743207e-05,0.000272738949819741,7.96918855367378e-06,-1.66782656697184e-05
-7.53045126977272e-05,0.000265789047824684,8.38393704670389e-06,-2.3982738046453e-05
-7.4493889480465e-05,0.000264060513023169,9.43550817859234e-06,-2.72792242685004e-05
-7.45415731991275e-05,0.000266897694283586,9.34299977515794e-06,-2.6504808359562e-05
-7.73191498112172e-05,0.000270664708057923,6.34470506203469e-06,-2.43653073555535e-05
-8.35657169560025e-05,0.000273096577709709,5.39713136341462e-07,-2.33979536244378e-05
-8.94904189998161e-05,0.000273513810248006,-5.98594110788794e-06,-2.39941185132879e-05
-9.50455722239955e-05,0.00027502776831554,-1.10380686121838e-05,-2.47221931924807e-05
-9.78827534844132e-05,0.000278043763520942,-1.37812518051991e-05,-2.34733042044585e-05
-9.79542790624069e-05,0.000283598916745121,-1.45004541718593e-05,-1.83547449217839e-05
-9.78350697657507e-05,0.000295186060380105,-1.40383931561825e-05,-9.00600942394816e-06
-9.80138837107351e-05,0.000307977217911316,-1.36152817779792e-05,2.10201249068039e-06
-9.77158604690945e-05,0.000317311305839497,-1.3841448709312e-05,1.0904473665846e-05
-9.68694744628354e-05,0.000324106235748901,-1.34562418314013e-05,1.56871399307729e-05
-9.49263629273392e-05,0.000328826923896487,-1.05378937544047e-05,1.91525993925977e-05
-9.03606468654064e-05,0.000335657616594888,-5.6723187197508e-06,2.51308902762499e-05
-8.57353261551455e-05,0.000345766564951334,-2.16662465105525e-06,3.36432931034269e-05
-8.6033349396786e-05,0.000353765508756966,-1.81116643579162e-06,4.07555450670547e-05
-8.71539167853544e-05,0.000357460996953308,-2.11915596536971e-06,4.31282730625691e-05
-8.42094471579461e-05,0.000355887434237446,3.31892911353493e-07,4.10450254541397e-05
-7.92503404170478e-05,0.000353169462273685,5.23006516488061e-06,3.68763792565074e-05
-7.5376038275721e-05,0.000349366685710352,9.6084623193762e-06,3.24260136835263e-05
-7.28368802569437e-05,0.000345814248669997,1.26041761397883e-05,2.83640978155629e-05
-6.92486804275918e-05,0.000343060513917238,1.61780572863403e-05,2.44406665129067e-05
-6.43253364756904e-05,0.000338113328106006,2.11841758859823e-05,1.9108001810098e-05
-5.97357785544263e-05,0.000329494495957762,2.57291676616687e-05,1.03428985093865e-05
-5.88178669701735e-05,0.000318658370891712,2.81955674018168e-05,-1.78026484867733e-06
-5.70297275203304e-05,0.000306057948235151,2.92314619308557e-05,-1.42770504495188e-05
-5.66601787006961e-05,0.000295948999878704,2.94779496616937e-05,-2.4190944025193e-05
-5.99622762180731e-05,0.000289785879241579,2.77661915594498e-05,-3.13654868003175e-05
-6.39677085857218e-05,0.000284302251595393,2.35432746680294e-05,-3.69860087721106e-05
-6.8330768843339e-05,0.000280046479704766,1.92874383168042e-05,-4.04853004006118e-05
-6.98804896998697e-05,0.000280749814555038,1.80311153006921e-05,-3.99692771604862e-05
-6.9713596684551e-05,0.000285959260818914,1.91868473054696e-05,-3.5463341487845e-05
-7.01785129415102e-05,0.0002906799489665,1.89871622398339e-05,-2.97699779433443e-05
-7.37667127708621e-05,0.00029432775344418,1.49572422037274e-05,-2.56539217090335e-05
-8.16345263501719e-05,0.000296461599854326,8.25219848341736e-06,-2.33699177243818e-05
-8.90374236725225e-05,0.000299072283451097,1.5182558232442e-06,-2.10574259436464e-05
-9.39250048354271e-05,0.000302410143757471,-3.92088173204662e-06,-1.63019077857342e-05
-9.92059766772971e-05,0.000310468692211431,-8.19333318964985e-06,-7.36425958057625e-06
-0.000102722650928655,0.000323474426476623,-1.14226929041367e-05,5.35936922489979e-06
-0.000104928022916795,0.000336039086344188,-1.31736464911354e-05,1.85471615007618e-05
-0.000105118757791445,0.000343561192963194,-1.31927709290475e-05,2.82127320517973e-05
-0.000104415422941173,0.000349092504328043,-1.22188464656136e-05,3.36066035807028e-05
-0.00010472536711248,0.000352537653001407,-1.17723788441983e-05,3.75542271572348e-05
-0.000105834013571382,0.000355041048231187,-1.28147093017121e-05,4.21949954537815e-05
-0.000107681757669554,0.00035884382479452,-1.45624740802394e-05,4.60995996094477e-05
-0.000108945376214109,0.000358235857381574,-1.52238636550039e-05,4.69510175884533e-05
-0.00010809899020785,0.00035547020169915,-1.43041790369579e-05,4.53750089553592e-05
-0.000107789046036544,0.000353312513429672,-1.35337774273796e-05,4.38829331875874e-05
-0.000108873850636116,0.000350642225184573,-1.47738124882555e-05,4.29391522403561e-05
-0.000111699110966868,0.000347173234651878,-1.75008197286072e-05,4.05768795811287e-05
-0.000114452845719626,0.000341331979115723,-1.93436541765462e-05,3.57775696749702e-05
-0.000113236910893733,0.000333929081793373,-1.88686212491986e-05,2.98552644966588e-05
-0.00011125803656924,0.000327062626305975,-1.67135281572175e-05,2.40837387244129e-05
-0.000108826166917453,0.000319492835968306,-1.38949055055771e-05,1.81246340447359e-05
-0.000105047232213451,0.000311529654951671,-1.02552236496371e-05,1.16232742434586e-05
-9.99689161758969e-05,0.000304710883182936,-5.33239562084932e-06,5.38339184077343e-06
-9.43780001627207e-05,0.000296998041689279,1.73402665930648e-08,-2.96706458538061e-07
-9.04798561620626e-05,0.000288951414164985,3.91843217408323e-06,-6.84843521439735e-06
-8.93116050548318e-05,0.000279295461135832,5.3352330365116e-06,-1.54410542447819e-05
-8.89420562351975e-05,0.000268876568608079,4.93411663826303e-06,-2.48415338672745e-05
-8.92639213361693e-05,0.000259196773719595,4.00269911264116e-06,-3.27882096212226e-05
-9.08851677706937e-05,0.00025112630433597,3.11380769720238e-06,-3.88179403858032e-05
-9.10639817156781e-05,0.000245404258096472,2.16495032836371e-06,-4.44123819941964e-05
-9.11831910123343e-05,0.000237333788712847,1.24251529619447e-06,-5.08803969893713e-05
-9.12070328716655e-05,0.000227999700784665,8.04774717887392e-07,-5.82380498469028e-05
-9.14931351836404e-05,0.00021973849652639,1.04296004919671e-06,-6.55970667920484e-05
-8.96096282964723e-05,0.000212764752672002,1.57648638582058e-06,-7.14830613273016e-05
-8.86201911342258e-05,0.000208771241234019,1.93063429114209e-06,-7.4231279808632e-05
-8.82625632442572e-05,0.000208723557515356,1.97407794378964e-06,-7.30747848103347e-05
-8.83340888222509e-05,0.000211548817846109,1.81147895674315e-06,-6.83832263874101e-05
-8.73684935193356e-05,0.000219070924465115,1.64975948375937e-06,-6.03442326659056e-05
-8.61883214824391e-05,0.000230264677421133,1.81040751689759e-06,-4.88901470880733e-05
-8.5687642436483e-05,0.00024056436065223,2.26482301773428e-06,-3.60627761557326e-05
-8.55207494211643e-05,0.000249016299785155,2.00593562188232e-06,-2.62970769589041e-05
-8.66174749504015e-05,0.000254559532079669,-2.75194120765525e-07,-2.16522511631093e-05
-8.94546562108192e-05,0.00025678874592714,-4.42278211751806e-06,-1.80237192414998e-05
-9.42587908660645e-05,0.00026264192239296,-8.6036178826378e-06,-9.24746756378205e-06
-9.62615070498888e-05,0.000278246419325257,-1.15353424864043e-05,5.646455464409e-06
-9.66668186585199e-05,0.000295746344074389,-1.39030016992316e-05,2.25300858773126e-05
-9.95397627079345e-05,0.000308883208565903,-1.64773333570261e-05,3.88520899501851e-05
-0.000100743776604162,0.000325059910122151,-1.79570641894107e-05,5.5708846022975e-05
-9.79185162734101e-05,0.000343632718541188,-1.6540453035049e-05,7.25397498892703e-05
-9.33766420708085e-05,0.000353407880866997,-1.3031683818928e-05,8.4774964190422e-05
-9.06467491773813e-05,0.00035748483881264,-1.01211724375259e-05,8.9556447035883e-05
-8.88466887978726e-05,0.000358474275974886,-8.5289237014234e-06,8.99293771323481e-05
-8.43167355249366e-05,0.000357270262078658,-6.22685948929626e-06,8.98259188030558e-05
-8.06808519769223e-05,0.000355076811020184,-2.15170902663371e-06,8.80157514036961e-05
-7.7104573077236e-05,0.000348544141563424,1.67075008643169e-06,8.12267163553193e-05
-7.37190290521997e-05,0.0003370404444361,3.13236132512955e-06,7.08406311067613e-05
-7.36236616148747e-05,0.00032773019836725,3.29974304456479e-06,6.13497434358367e-05
-7.22050709846658e-05,0.000319707412702287,4.7992254789156e-06,5.30415773693318e-05
-6.81400339686891e-05,0.000307691115599341,8.15135361098071e-06,4.14071403006372e-05
-6.4241889968031e-05,0.000289893167608569,1.16121469336902e-05,2.4406472796211e-05
-6.18338621755756e-05,0.000272274033562781,1.39531719850639e-05,5.8219421960403e-06
-6.01768529520543e-05,0.000256848350575468,1.55640435415399e-05,-9.9779303008559e-06
-5.84006344318768e-05,0.000243139281460004,1.69941413895821e-05,-2.27638771635195e-05
-5.78045879485958e-05,0.000231850161066661,1.78904402562637e-05,-3.41848358963033e-05
-5.75661693552833e-05,0.000223374380074404,1.75110773393626e-05,-4.43094424990954e-05
-6.01887738817199e-05,0.000214111817724217,1.54639216878699e-05,-5.28858040932839e-05
-6.38723411483968e-05,0.000205552590224301,1.21224874202101e-05,-6.1283836014274e-05
-6.68287317054708e-05,0.00019766093478566,8.86978252867701e-06,-7.02924253221782e-05
-6.8676475803642e-05,0.000191080581610237,7.26529408430483e-06,-7.76946869464986e-05
-6.9367889724248e-05,0.000187909614319182,7.2515648005722e-06,-8.05361529677157e-05
-7.02261966601727e-05,0.000190305721181972,7.09666093971145e-06,-7.84393769359735e-05
-7.13110012597442e-05,0.000197792065011982,6.00132747456445e-06,-7.25547917138485e-05
-7.14659733453973e-05,0.00020773412035311,5.53569078563026e-06,-6.30551086134064e-05
-7.24792523669751e-05,0.000219488157003412,7.14039747017004e-06,-5.06313509041015e-05
-6.99639362075291e-05,0.000233113779611217,9.51238893130676e-06,-3.91340415010424e-05
-6.83426897730046e-05,0.000240051760676608,1.03946497100587e-05,-3.29356544198693e-05
-7.11679501037568e-05,0.000240957751331195,9.86188861076161e-06,-3.14572316604856e-05
-7.32421918655748e-05,0.000244832053472522,9.41878143780779e-06,-2.94414150932929e-05
-7.28488011866093e-05,0.000252103820568551,8.59274991461967e-06,-2.33721667275066e-05
-7.77483032791795e-05,0.000259888187640201,5.37595196476404e-06,-1.48693495855557e-05
-8.49485447972145e-05,0.00027023555458996,8.73538689191645e-08,-6.70343489886876e-06
-8.95738655074755e-05,0.000279712693674129,-4.20715610075908e-06,1.69040582831608e-06
-9.17553956362841e-05,0.000289773958311913,-5.85893662974178e-06,1.25863821782874e-05
-9.40442141320833e-05,0.000305700320345182,-6.47424806266103e-06,2.57787335893002e-05
-9.64403209948731e-05,0.000319063682500343,-7.5009790347326e-06,3.85666779406201e-05
-9.71198139858135e-05,0.000329458733168765,-7.73359757741745e-06,4.90262872943457e-05
-9.67621860958449e-05,0.00033867361180029,-6.00327043360331e-06,5.6835108086458e-05
-9.61065349642357e-05,0.000345158597538388,-3.90831460180615e-06,6.10637939421912e-05
-9.61542186828982e-05,0.000342714806956935,-3.35616706113801e-06,5.97344809096094e-05
-9.72986279307978e-05,0.000337374230466737,-3.06675932475154e-06,5.26424536504074e-05
-9.60469303159076e-05,0.000329244156434784,-3.3029202211459e-07,4.306022867478e-05
-9.14812142539748e-05,0.000321972389338755,4.64190626608441e-06,3.52160695767621e-05
-8.81791167365978e-05,0.000317633170940469,8.90130839528991e-06,3.05195664072409e-05
-8.85486655562321e-05,0.000315368194304001,1.10176114469445e-05,2.70274628877972e-05
-8.65817121614046e-05,0.000311839599122977,1.24644897053108e-05,2.21267431207545e-05
-8.59618238187923e-05,0.000304865855268589,1.44554776640048e-05,1.49559545065348e-05
-8.57353261551455e-05,0.000297439116086907,1.59692763758266e-05,6.5736693603288e-06
-8.66890005283952e-05,0.000289893167608569,1.59630455815963e-05,-1.28654660766139e-06
-8.76426749016449e-05,0.00028558971199928,1.54505088679913e-05,-7.51157936627891e-06
-8.80003027916135e-05,0.000280785577344035,1.58026488996119e-05,-1.22725717281483e-05
-8.84294562595758e-05,0.000276434438016083,1.64199001923092e-05,-1.65474721310073e-05
-8.97884422414566e-05,0.000274097935801621,1.59123823080923e-05,-2.06393560710118e-05
-9.08494049816969e-05,0.000272107140547463,1.47564100798516e-05,-2.329321712236e-05
-9.17315537769528e-05,0.000272035614969469,1.47497292157271e-05,-2.28767657865569e-05
-9.08374840520313e-05,0.000276243703141433,1.58703404888541e-05,-1.94831383126603e-05
-9.19580514405996e-05,0.000281620042420628,1.56155374679081e-05,-1.52296221664696e-05
-9.4997888505333e-05,0.000284326093454724,1.22448270590529e-05,-1.22281387995407e-05
-9.99093115275688e-05,0.00028616191662323,7.21658410084907e-06,-1.07621237510453e-05
-0.000105226046158436,0.00028779508398742,3.02388934428359e-06,-9.69552416819367e-06
-0.000107812887895875,0.000289082544391307,-6.06209933078831e-07,-8.05246724115153e-06
-0.000114250189915311,0.000292539613994337,-6.59833828451987e-06,-5.65965373348766e-06
-0.000123667724351151,0.000295054930153783,-1.6446389629229e-05,-2.67724265607742e-06
-0.000134480007557869,0.000298094767218516,-2.77743622278069e-05,7.35546256261273e-07
-0.000143647202470732,0.000302267092601484,-3.68169115892227e-05,4.24665839147223e-06
-0.000148463258055643,0.000305533427329864,-4.22559537790215e-05,7.30898384189009e-06
-0.000150573262606458,0.000306665915648098,-4.54262537021887e-05,9.40918331889996e-06
-0.000152289876478307,0.000307333487709372,-4.75565234855396e-05,1.01567117749379e-05
-0.000153052815976907,0.000306725520296426,-4.86447896228335e-05,9.23175650414091e-06
-0.000152611741579279,0.000304067152980992,-4.91397489791137e-05,6.64474622749785e-06
-0.000152552136930951,0.00029911996716976,-5.07789487228482e-05,3.14763185203738e-06
-0.00015571118329234,0.000296092051034692,-5.44967505244256e-05,2.25642278772903e-08
-0.000159633169152329,0.000294494646459499,-5.84915259537043e-05,-1.92894628249027e-06
-0.000158798704075736,0.00029201509308905,-5.9754844621879e-05,-3.19513953352419e-06
-0.000154304513591797,0.000289356725773616,-5.71637781955612e-05,-4.98332936467861e-06
-0.00014917851383558,0.000286853330543836,-5.18908011967494e-05,-7.50481890165489e-06
-0.000141227253748611,0.000284886377149008,-4.50091522199508e-05,-9.06889881875346e-06
-0.00012960434732463,0.000285303609687305,-3.6164397772132e-05,-7.59499038190528e-06
-0.000117468840925028,0.000288617628134348,-2.50259686659829e-05,-3.21617491851859e-06
-0.000104820734549805,0.000293433683719259,-1.27917067789409e-05,1.39438977980859e-06
-9.17792374956153e-05,0.000294578092967158,-1.28948396498689e-06,3.81535691997544e-06
-7.84993218481136e-05,0.000294482725529833,8.79523153388856e-06,4.22869035548183e-06
-6.97612804032135e-05,0.00029318334419628,1.79618930781832e-05,4.24516445398242e-06
-5.92589413678015e-05,0.000293052213969959,2.66318398834019e-05,4.44908787708712e-06
-4.89950209257019e-05,0.000292933004673302,3.46170674533237e-05,4.70794212687624e-06
-4.194975149332e-05,0.000292587297712999,4.12444813010976e-05,6.20434812523686e-06
-3.5786630856194e-05,0.000296568888221317,4.48610478486414e-05,1.07096912451569e-05
-3.72529052050653e-05,0.000303113478607743,4.28367974135541e-05,1.73940936630142e-05
-4.44889095120972e-05,0.00030690433424141,3.42144901834468e-05,2.26662132386024e-05
-5.33819230426504e-05,0.000307750720247669,2.30273509945877e-05,2.44312658805353e-05
-5.89013134778329e-05,0.000307154673764388,1.69721015223259e-05,2.47236279912959e-05
-5.35964997766316e-05,0.000309097785299884,2.08054817661607e-05,2.6611511407274e-05
-4.13537050100389e-05,0.000310826320101399,3.15124523438595e-05,3.00321341709602e-05
-3.09228915526206e-05,0.000312197227012946,4.12609933414107e-05,3.25295817949749e-05
-2.56657615700818e-05,0.000312602538621577,4.46091266102282e-05,3.28731721813052e-05
-2.77400033318998e-05,0.000310766715453071,4.17357013595713e-05,3.16893402580412e-05
-3.30090542441043e-05,0.000306439417984451,3.58465895842169e-05,2.90921504498786e-05
-3.7765505180687e-05,0.00030066968802629,2.9949717558131e-05,2.39944376847508e-05
-3.97205376458488e-05,0.000293099897688621,2.61280935800206e-05,1.59820916024997e-05
-4.05192399334454e-05,0.000282120721466584,2.52112925761018e-05,6.24760134488624e-06
-4.01616120434768e-05,0.000270688549917254,2.5847034321e-05,-3.54084550168937e-06
-3.80992912113244e-05,0.000262236610784329,2.55663544528562e-05,-1.2105674422511e-05
-3.87907051319304e-05,0.000256252304092187,2.38769418295944e-05,-1.85682048430786e-05
-4.13298631507077e-05,0.000249552741620108,2.27563528153161e-05,-2.31901373448918e-05
-3.99231934501644e-05,0.000243759169802616,2.30207368059786e-05,-2.81494490514865e-05
-3.89695190769147e-05,0.000236928477104215,2.21320211061239e-05,-3.60393572824903e-05
-4.42504909187848e-05,0.000224697603267288,1.74919918432029e-05,-4.72672221996606e-05
-5.18083603267884e-05,0.000210738194628846,1.04556358162084e-05,-5.99878226586049e-05
-5.66482577710305e-05,0.000198435795213926,4.78967130771702e-06,-7.24140234403959e-05
-5.83171879242175e-05,0.000187110912031586,2.04490827872215e-06,-8.36698200013765e-05
-6.02960622487105e-05,0.000178158293852704,8.71777834323018e-07,-9.22451150575928e-05
-6.14047087076133e-05,0.000174772749827668,4.26189811838492e-07,-9.51929725364228e-05
-5.96642529764326e-05,0.000179481517045588,1.69362012192326e-06,-8.96105511275099e-05
-5.52773508594841e-05,0.000195276748852536,4.914924502389e-06,-7.4583014561506e-05
-5.40137323149283e-05,0.000217747701272231,7.87426079227722e-06,-5.23741091271161e-05
-5.51223787738311e-05,0.000239741816505302,7.68946615310062e-06,-2.8806184623097e-05
-5.81622158385644e-05,0.000257527843566408,3.03526600588887e-06,-1.10751354993139e-05
-6.74605409777487e-05,0.00026803018260182,-5.62507386560773e-06,-2.24528254450737e-06
-7.99536752673194e-05,0.000271475331275185,-1.63044740777278e-05,2.36586177168471e-06
-8.89778190241944e-05,0.000279402749502823,-2.56458841589362e-05,1.08908001332727e-05
-9.39130839057615e-05,0.000295615213848067,-3.09075625484372e-05,2.63332711223106e-05
-9.68813953925011e-05,0.000314295310634095,-3.28492148853631e-05,4.41398627344924e-05
-0.000100266939417537,0.000327909012312234,-3.49834958551027e-05,5.83617143591627e-05
-0.000103938585754549,0.000336396714234156,-3.88689009134609e-05,6.7410798811127e-05
-0.000107073790256607,0.000343394299947876,-4.17981890511885e-05,7.28891629784302e-05
-0.000106978422819282,0.000346577188168596,-4.05085855186396e-05,7.59385689829041e-05
-0.000102877623014308,0.000347495099752849,-3.5543497051576e-05,7.70196405939175e-05
-9.72032604934728e-05,0.000347995778798805,-3.00567498691027e-05,7.71352780840385e-05
-9.34481676488022e-05,0.000347697755557165,-2.55552703535831e-05,7.66175709298261e-05
-9.03248840764096e-05,0.000346410295153278,-2.11436333342236e-05,7.36903668375762e-05
-8.54611447728362e-05,0.000338470955995974,-1.64246748326116e-05,6.63114828303724e-05
-8.24928332860966e-05,0.000326943417009319,-1.2726271727923e-05,5.49566710460821e-05
-8.20994426071311e-05,0.000316369552395913,-1.11479198587268e-05,4.2338510346633e-05
-8.1789498435825e-05,0.000305604952907857,-1.12538427187414e-05,3.10998534769474e-05
-8.41617634392836e-05,0.000296294706839008,-1.22289194137881e-05,2.24964327377125e-05
-8.60452703264517e-05,0.00029116870708279,-1.37839941953453e-05,1.58733158553663e-05
-8.78214888466292e-05,0.000284981744586333,-1.52156808148589e-05,8.45321920668458e-06
-8.81075911586041e-05,0.000273990647434631,-1.48698875159583e-05,-2.51562342713096e-06
-8.54253819838394e-05,0.000261175648044088,-1.15268886843659e-05,-1.59878230591524e-05
-7.98583078299944e-05,0.000251340881069951,-5.63801796685183e-06,-2.73493867124455e-05
-7.33256383732342e-05,0.000244903579050516,1.45001867848455e-06,-3.3983420662396e-05
-6.62922898705178e-05,0.000241565718744142,8.80818886913559e-06,-3.84587228797574e-05
-5.97715413434232e-05,0.000237059607330537,1.58263483369261e-05,-4.40840937930988e-05
-5.47289880948656e-05,0.00023182631920733,2.15236605161049e-05,-4.95899690379567e-05
-5.12599975621699e-05,0.000231814398277664,2.50050766545232e-05,-5.12180266461232e-05
-4.99606162286172e-05,0.000235402598107016,2.66227222487228e-05,-4.83792403669319e-05
-4.95672255496517e-05,0.000240993514120192,2.80622791805775e-05,-4.39088656520744e-05
-4.61339978059529e-05,0.000245702281338112,3.09180764397517e-05,-3.98965404182292e-05
-4.30226351632258e-05,0.000250315681118708,3.50068958714729e-05,-3.66431604843058e-05
-4.012584925448e-05,0.00025362969956575,3.79205497681017e-05,-3.47187543625742e-05
-4.17470956890044e-05,0.000254642978587328,3.65453845730037e-05,-3.42350856562584e-05
-4.91619139410206e-05,0.000257587448214736,2.97483401785384e-05,-3.25324135160734e-05
-5.8960918126161e-05,0.000265157238552406,1.97680849735993e-05,-2.650403667696e-05
-6.87956851002982e-05,0.000275445000853837,1.04562592450498e-05,-1.72354601119246e-05
-7.55071685020428e-05,0.000284945981797336,3.98948779757446e-06,-8.51109861191885e-06
-7.98225450409976e-05,0.000294256227866186,-2.30295211757691e-07,-7.36114656770127e-07
-8.37564518306525e-05,0.000305521506400198,-3.60217315542049e-06,9.06145453092149e-06
-8.6319451708761e-05,0.000317370910487825,-6.46406942295371e-06,2.03511937779269e-05
-8.93116050548318e-05,0.000325882454269079,-8.76497598209219e-06,2.73607470260274e-05
-9.2291837471237e-05,0.000326764603064335,-1.14312923175277e-05,2.67393699688138e-05
-9.62257442608919e-05,0.000323307533461304,-1.56706741405801e-05,2.27033155267573e-05
-0.000102400785827684,0.00032351018926562,-2.11329196487257e-05,2.11839977724324e-05
-0.000107431418146576,0.000325202961278138,-2.59092771900212e-05,2.21322317194778e-05
-0.000109982497095018,0.00032590629612841,-2.85361197822612e-05,2.12388692509165e-05
-0.000111389166795562,0.000321912784690427,-2.92075025894987e-05,1.6546038003819e-05
-0.000110745436593618,0.000316083450083938,-2.88362235931838e-05,9.26083328427566e-06
-0.000110530859859637,0.000307595748162016,-2.772257198697e-05,3.28844178639926e-08
-0.000108253962293503,0.000298190134655841,-2.56039648517159e-05,-1.09324731593e-05
-0.000105679041485729,0.000289011018813313,-2.24682507376905e-05,-2.07687065449272e-05
-0.000102269655601362,0.000285112874812655,-1.8707679459268e-05,-2.54403083607651e-05
-9.81211720777256e-05,0.000287246721222801,-1.45895933769972e-05,-2.49449217323851e-05
-9.46044978263675e-05,0.000289177911828632,-9.93911114796247e-06,-2.3622136472879e-05
-8.87513213605476e-05,0.000288760679290335,-4.33263772952276e-06,-2.44172799103297e-05
-8.21828891147905e-05,0.000289011018813313,2.51103925102017e-06,-2.56370955278516e-05
-7.55667731503709e-05,0.00029116870708279,1.03264750912808e-05,-2.43812622264915e-05
-6.76631967820642e-05,0.000294780748771474,1.80483923686585e-05,-2.06949797929829e-05
-6.20126761205599e-05,0.000299727934582706,2.4158199270547e-05,-1.69112740988816e-05
-5.91039692821484e-05,0.000303220766974733,2.77181644440468e-05,-1.46147122590394e-05
-5.8269504205555e-05,0.000303423422779049,2.91648486352334e-05,-1.36194646570998e-05
-5.78522716672582e-05,0.000305736083134179,2.97754591255485e-05,-1.28809281255991e-05
-5.80191646825769e-05,0.000307834166755329,3.01781797265098e-05,-1.14049472252263e-05
-5.91397320711453e-05,0.000309503096908515,2.96966057027586e-05,-8.85435867752186e-06
-6.19888342612287e-05,0.000314056892040783,2.74972522700017e-05,-5.61251600954493e-06
-6.54578247939244e-05,0.000318813342977365,2.40512653582189e-05,-1.65560686228634e-06
-6.99281734185322e-05,0.000323343296250301,2.07170766097557e-05,4.26689029852291e-06
-7.3015694201928e-05,0.00033320190508377,1.78659046462441e-05,1.30035920542161e-05
-7.70568893585735e-05,0.000343489667385201,1.44411159923114e-05,2.28626306301742e-05
-8.19206286621468e-05,0.000350987932144876,9.99924858684271e-06,3.09803551180754e-05
-8.6569791231739e-05,0.000356817266751365,6.23360380655512e-06,3.69676633915305e-05
-8.80360655806104e-05,0.000363302252489463,5.13866378063896e-06,4.31042209631879e-05
-8.75353865346543e-05,0.000370454810288835,5.96391366123879e-06,5.02928564080247e-05
-8.87036376418851e-05,0.000375485442607727,5.48145816167383e-06,5.60548892086544e-05
-9.39011629760958e-05,0.00037727358205757,1.60997631457302e-06,5.79461583388251e-05
-9.8896032505991e-05,0.000376319907684321,-4.41589505402884e-06,5.71697740260127e-05
-0.000105905539149376,0.000375759623990036,-9.92869492780224e-06,5.68742797007541e-05
-0.000110709673804621,0.000376153014669002,-1.36762602621935e-05,5.78946626674441e-05
-0.000112187869083158,0.000375592730974718,-1.60581086663806e-05,5.81224867841019e-05
-0.000115156180569898,0.000373303912478919,-1.76035594838168e-05,5.57275957753643e-05
-0.000116086013083816,0.000368392489456683,-1.8284835097619e-05,5.13420541977375e-05
-0.00011596680378716,0.000362598917639191,-1.77356913284923e-05,4.69658529288763e-05
-0.000114011771321998,0.000359511396855795,-1.53150931081242e-05,4.38656142576699e-05
-0.000109410292471069,0.000356686136525043,-1.05821027602085e-05,4.16649886710751e-05
-0.000103938585754549,0.000352954885539704,-4.51322155976525e-06,3.86087139040156e-05
-9.95039999189377e-05,0.000345361253342703,4.50748789990355e-07,3.25897531966355e-05
-9.73939953681228e-05,0.000335693379383885,2.47532703038607e-06,2.2636095832303e-05
-9.8550325545688e-05,0.000321781654464105,1.8627364386496e-06,9.65470937464364e-06
-0.000100457674292187,0.000306117552883479,-1.05738765186544e-07,-4.5011763068643e-06
-0.000103878981106221,0.000291621702410084,-2.71684326570545e-06,-1.85254240453267e-05
-0.000106263167039345,0.000277817265857295,-5.21076917252254e-06,-3.20145093004238e-05
-0.000107049948397276,0.0002633214153839,-6.13505353893136e-06,-4.48945228241544e-05
-0.000106382376336001,0.000250351443907705,-5.19402398609058e-06,-5.71510540792199e-05
-0.00010654926935132,0.000237917914266462,-4.60646127536442e-06,-6.88094887621297e-05
-0.000107872492544204,0.000226473821787466,-6.3178586366659e-06,-7.94728990221824e-05
-0.0001094341343304,0.00021677018503965,-8.71009707399466e-06,-8.79896844522299e-05
-0.000110888487749606,0.0002105116969652,-8.86503069499618e-06,-9.31960742067114e-05
-0.000109684473853378,0.000207829487790435,-7.64295491852213e-06,-9.50662595399689e-05
-0.000109899050587359,0.000207674515704782,-9.03946814486947e-06,-9.48418442612369e-05
-0.000114965445695248,0.000206339371582232,-1.38534818820633e-05,-9.40574693572991e-05
-0.000119245059445206,0.000206625473894207,-1.74769883420708e-05,-9.34192924385766e-05
-0.000116932399090075,0.000207138073869829,-1.5756116611407e-05,-9.2152533369963e-05
-0.000110888487749606,0.000209760678396265,-1.02810613216678e-05,-8.83641633832664e-05
-0.00010597706472737,0.000215661538580748,-5.63134313292209e-06,-8.09022974921622e-05
-0.000104546553167495,0.000224936021860601,-3.61356598739724e-06,-7.12635191296854e-05
-0.000103163725326283,0.000232684626143254,-2.85331998722692e-06,-6.25363403541046e-05
-0.000101900106781727,0.00023854972353874,-2.47425070770098e-06,-5.54083255822142e-05
-0.000102341181179355,0.000246512904555375,-3.21245745093559e-06,-4.61110921285991e-05
-0.000105321413595761,0.000262272373573325,-5.42364679589712e-06,-2.98567090699903e-05
-0.000107157236764266,0.000285160558531318,-8.34628599419939e-06,-6.08582873703538e-06
-0.000108551985535144,0.000310516375930093,-1.11379128006826e-05,2.09073824143326e-05
-0.000111126906342918,0.000334870835236957,-1.29566983892848e-05,4.61313664520073e-05
-0.000110900408679271,0.000355100652879515,-1.26392252320168e-05,6.70174815309571e-05
-0.000105941301938373,0.000369620345212242,-1.00754418196731e-05,8.26049354972139e-05
-0.000103676325301905,0.000377583526228876,-7.0961225881601e-06,9.20407856376216e-05
-0.000101113325423796,0.000380063079599326,-4.89156593133318e-06,9.5248085956576e-05
-9.62734279795544e-05,0.000377690814595867,-1.32664247556918e-06,9.37807093455437e-05
-8.82506423145915e-05,0.00037256481483965,6.56578547081861e-06,8.95751895188315e-05
-7.6317791719305e-05,0.000365257284954624,1.77118266865501e-05,8.34662091529523e-05
-6.5910820121218e-05,0.000356423876072399,2.74455162863333e-05,7.59698429838613e-05
-6.00338017960669e-05,0.000349152108976371,3.31451338088251e-05,6.87637463392496e-05
-5.49793276178436e-05,0.000343060513917238,3.66926357054718e-05,6.38842295365373e-05
-5.13315231401636e-05,0.000339341183861565,4.05757493033584e-05,6.15071319066868e-05
-4.63843373289309e-05,0.000336313267726497,4.43008965163665e-05,5.97181246267508e-05
-4.36186816465069e-05,0.000334358235261335,4.61660109159409e-05,5.67319394028811e-05
-4.35590769981788e-05,0.000327658672789256,4.6276614631145e-05,5.25376833228018e-05
-4.2891504936904e-05,0.00032225849165073,4.57428817787071e-05,4.81990136421294e-05
-4.31299235302164e-05,0.000319004077852015,4.43556688270565e-05,4.43923614901417e-05
-4.63962582585965e-05,0.000314986724554701,4.10184636889718e-05,4.10676602024649e-05
-5.09977371095262e-05,0.000309717673642497,3.55070203909174e-05,3.78729798682396e-05
-5.7828429807927e-05,0.000306367892406457,2.81471003718432e-05,3.41837172284318e-05
-6.50763550446245e-05,0.000300872343830606,1.87512578530872e-05,2.8881662938523e-05
-7.70926521475704e-05,0.000291991251229718,7.66378628494819e-06,2.0788323241452e-05
-8.70704702776951e-05,0.000280058400634432,-3.06747660195803e-06,9.73986720538865e-06
-9.31382234774961e-05,0.000267505661696533,-1.1748886018812e-05,-2.76443906865792e-06
-0.000101614004469753,0.000256359592459177,-1.98274556881084e-05,-1.41918427461333e-05
-0.000112199790012824,0.000247490420787956,-3.02164962412714e-05,-2.2521127660093e-05
-0.000122141845353952,0.000241875662915448,-4.256091404338e-05,-2.73708042549718e-05
-0.00013151169607113,0.000240218653691927,-5.24801820976746e-05,-2.97382237202421e-05
-0.000135755547032091,0.000239396109544999,-5.66060334212515e-05,-3.08591122381734e-05
-0.000134611137784191,0.000238215937508102,-5.6677744780694e-05,-3.1543935653479e-05
-0.000134110458738235,0.000237739100321478,-5.72348227286708e-05,-3.23816602522997e-05
-0.000136756905124003,0.000236642374792241,-6.0380472837515e-05,-3.38768017251389e-05
-0.000140094765430377,0.000235247626021363,-6.42406150804724e-05,-3.59804526293721e-05
-0.000140261658445696,0.000233924402828479,-6.56103841531862e-05,-3.78151708048065e-05
-0.000136959560928319,0.000233411802852857,-6.22325836733882e-05,-3.82868041186099e-05
-0.000126135356791935,0.000235533728333338,-5.29100442492159e-05,-3.6949561502542e-05
-0.00011049509707064,0.000240278258340255,-3.78363089338892e-05,-3.4351273575087e-05
-9.28044374468587e-05,0.000242340579172407,-1.98677791568636e-05,-3.21595208464302e-05
-7.53641173460553e-05,0.000241148486205845,-3.83761111525448e-06,-3.32163331114816e-05
-6.35623969770906e-05,0.000236642374792241,7.07296572084382e-06,-4.03793713103272e-05
-5.72085414653147e-05,0.000225579752062544,1.37889831322003e-05,-5.37211455378781e-05
-5.11646301248449e-05,0.000208842766812013,1.90324410123539e-05,-6.85902164836217e-05
-4.61220768762873e-05,0.000202095520621271,2.32216101999118e-05,-7.76876499441627e-05
-4.47750118240721e-05,0.000206959259924844,2.43886157498766e-05,-7.63843103510538e-05
-4.66465977815746e-05,0.000216889394336307,2.2214526093112e-05,-6.6488832749939e-05
-4.8267844216099e-05,0.000227963937995668,2.02165460704437e-05,-5.48419056179648e-05
-4.54664257446781e-05,0.000239110007233024,2.26411369187829e-05,-4.80733748834341e-05
-3.78966354070088e-05,0.00024143458851782,2.9875008648504e-05,-4.79937265203626e-05
-2.96473520783992e-05,0.000237178816627193,3.78543375773032e-05,-5.0995677113106e-05
-2.62975708423597e-05,0.000239300742107674,4.16618777193797e-05,-5.15776144613686e-05
-2.77638451912311e-05,0.000247395053350631,3.92663211345618e-05,-4.71262890426321e-05
-3.47614309049506e-05,0.000255012527406962,3.25583692562783e-05,-3.9916778390326e-05
-4.14490724473639e-05,0.000261175648044088,2.57378863242481e-05,-3.43595899955229e-05
-4.56452396896624e-05,0.00026696921986158,2.23030467449887e-05,-3.21373136403072e-05
-4.44173839341035e-05,0.000270593182479929,2.25369017250899e-05,-3.0372777291792e-05
-4.37855746618256e-05,0.000276756303117055,2.368750875333e-05,-2.47069344492685e-05
-4.54902676040094e-05,0.000290370004795194,2.28205126528607e-05,-1.3584521588714e-05
-4.91380720816894e-05,0.000306761283085423,1.91760351960854e-05,9.0105887976366e-07
-5.38587602292752e-05,0.000323069114867992,1.37144120001171e-05,1.57195081695954e-05
-6.17980993865788e-05,0.000338840504815609,7.64181235683126e-06,2.95509885149814e-05
-6.73651735404237e-05,0.000353395959937332,2.37913981428621e-06,4.29520587179086e-05
-6.9212917638595e-05,0.000368857405713642,-3.01605594711271e-07,5.67770460709389e-05
-7.07030338467976e-05,0.000385081790988552,-9.12096645156487e-08,7.05584748771934e-05
-7.11560291740912e-05,0.000396883511357517,3.32497599614911e-07,8.18571377145914e-05
-7.35402151072153e-05,0.000403237366869293,-2.30933589153015e-06,8.72669922803529e-05
-7.97629403926695e-05,0.000403738045915249,-7.77474371418492e-06,8.49946870338257e-05
-8.61525586934423e-05,0.000396168255577579,-1.24766809685232e-05,7.69593817815625e-05
-8.80837492992728e-05,0.000387442135062345,-1.42328560575599e-05,6.78928609836277e-05
-8.91327911098475e-05,0.000383710884077006,-1.47917274774394e-05,6.19648410660866e-05
-9.22560746822402e-05,0.000382816814352084,-1.65866133647515e-05,6.04586127757809e-05
-9.59277210192514e-05,0.00038533213051153,-1.89229032735124e-05,6.24748590416858e-05
-9.63449535575481e-05,0.000390243553533766,-1.91991347961541e-05,6.66416930063122e-05
-9.49502047866705e-05,0.000395905995124936,-1.66973026758162e-05,7.12923104751831e-05
-9.2983251391843e-05,0.000398850464752344,-1.31563911894897e-05,7.39100465482094e-05
-9.06109863883845e-05,0.000397276902036482,-1.01086300745268e-05,7.21191405092686e-05
-8.88943725165351e-05,0.000391137623258687,-7.47009096292734e-06,6.5713342182714e-05
-8.71777586446857e-05,0.000382995628297068,-4.67311681144091e-06,5.68717229615601e-05
-8.55207494211643e-05,0.000373613856650225,-1.62409574104756e-06,4.78269918158306e-05
-8.31961681363683e-05,0.000364363215229703,1.65760736448082e-06,3.87675476411552e-05
-8.05139589616036e-05,0.000354337713380916,5.16500290516236e-06,2.8494382394939e-05
-7.84397171997855e-05,0.000342500230222954,8.48743317076401e-06,1.67600915637666e-05
-7.69019172729204e-05,0.00033023359359703,1.12005214119591e-05,5.20939139095877e-06
-7.56859824470271e-05,0.000320315380115234,1.36603951973417e-05,-4.20729893529661e-06
-7.33733220918967e-05,0.000313508529276164,1.64736335251344e-05,-1.12898570423121e-05
-7.18355221650316e-05,0.000306057948235151,1.9309742237662e-05,-1.75225590131248e-05
-7.12037128927536e-05,0.000298953074154441,2.13048067076487e-05,-2.39753004610913e-05
-7.08341640731194e-05,0.000292575376783334,2.24722312907397e-05,-2.98967834805265e-05
-7.04765361831508e-05,0.000287961977002739,2.34227104105835e-05,-3.38702261632668e-05
-7.12990803300786e-05,0.000284588353907368,2.37451412334528e-05,-3.59050592584841e-05
-7.44581266914682e-05,0.000282478349356553,2.2190986511878e-05,-3.74720628200726e-05
-7.78675125758357e-05,0.000279486196010482,1.87167037909808e-05,-3.94752671596295e-05
-8.28504611760653e-05,0.000276839749624714,1.48014072109745e-05,-4.12123679397426e-05
-8.73684935193356e-05,0.000274848954370556,1.12695180612728e-05,-4.17610607852471e-05
-9.2387204908562e-05,0.000274670140425571,7.3579050071373e-06,-4.14612267233953e-05
-9.70363674781541e-05,0.000273573414896334,2.59940916406796e-06,-4.12726611595171e-05
-0.000102853781154977,0.00027195216846181,-2.05118663460844e-06,-4.13382152535883e-05
-0.000107371813498247,0.00027176143358716,-6.01543470457372e-06,-4.10103489040163e-05
-0.000112581259762124,0.000271832959165153,-1.03654742679366e-05,-3.97935376115293e-05
-0.000118052966478644,0.000272607819593419,-1.57963971529418e-05,-3.75016542207003e-05
-0.000123596198773158,0.000274527089269584,-2.07438046242292e-05,-3.40913407812934e-05
-0.000127136714883847,0.000278472916988904,-2.35013913650265e-05,-3.02290822295221e-05
-0.000129246719434662,0.000279760377392791,-2.53282831186729e-05,-2.72891775750819e-05
-0.000133192547153982,0.000279009358823857,-2.92432092064284e-05,-2.5544023082034e-05
-0.000140523918898339,0.000282180326114912,-3.59053015049519e-05,-2.30251966824739e-05
-0.000147366532526406,0.000286233442201223,-4.26220951575321e-05,-1.78817131652401e-05
-0.000151669988135695,0.000290024297834891,-4.65880746299786e-05,-1.1635554307256e-05
-0.000152754792735266,0.000292384641908684,-4.74126738893499e-05,-8.27954667674723e-06
-0.000151264676527064,0.000291478651254097,-4.61435744104129e-05,-9.99648737906635e-06
-0.000148940095242268,0.000283229367925487,-4.34672314312494e-05,-1.54534379821442e-05
-0.000145852574458872,0.000275385396205508,-3.97069792410667e-05,-2.23530067457791e-05
-0.000140905388647639,0.00026783944772717,-3.55448102660838e-05,-2.9333470629597e-05
-0.000137317188818287,0.000261783615457035,-3.18843328267353e-05,-3.45715699167952e-05
-0.000135552891227775,0.000260031238796189,-2.9324951583813e-05,-3.51100343139467e-05
-0.000133931644793251,0.000263965145585844,-2.7872868741886e-05,-2.97734924692116e-05
-0.000131630905367786,0.00027157069871251,-2.6652890241642e-05,-2.14842456729768e-05
-0.000130307682174902,0.000277674214701308,-2.41110939676507e-05,-1.46689558414612e-05
-0.000125443942871329,0.000280725972695707,-1.93144044736374e-05,-1.10441536558183e-05
-0.000117826468814997,0.000279915349478444,-1.2815047679476e-05,-9.52931800744383e-06
-0.000111329562147234,0.000279831902970785,-5.32931781896998e-06,-9.3529637690439e-06
-0.000101876264922396,0.000278306023973586,3.88951773867468e-06,-1.09943164357095e-05
-8.94546562108192e-05,0.000273144261428372,1.58150154688417e-05,-1.41413201948708e-05
-7.66396568202768e-05,0.000269317643005707,2.9014430292334e-05,-1.67411722011986e-05
-6.54935875829212e-05,0.000268650070944433,4.01898441718678e-05,-1.66751918447305e-05
-5.73515926213022e-05,0.000272667424241747,4.77410693508363e-05,-1.32385063213775e-05
-5.29766114340193e-05,0.000276613251961067,5.29029862179773e-05,-6.79487656893418e-06
-4.85181837390771e-05,0.000283491628378131,5.64836206631854e-05,1.76651276080028e-06
-4.93764906750018e-05,0.000293672102312571,5.63233621968551e-05,1.09027496686022e-05
-5.58495554834339e-05,0.000300419348503312,4.9752445170855e-05,1.90015136463247e-05
-6.71863595954394e-05,0.000305116194791567,3.78149499343e-05,2.58590216407046e-05
-8.01920938606318e-05,0.000311839599122977,2.54338636929606e-05,3.29788574529612e-05
-8.87870841495445e-05,0.000320386905693227,1.72595117081948e-05,4.19513424256699e-05
-9.08851677706937e-05,0.000330269356386027,1.42023679325732e-05,5.29666319281481e-05
-9.12189538013311e-05,0.000341045876803748,1.43191013595766e-05,6.50470857467263e-05
-8.96930748041317e-05,0.000351595899557823,1.65255251914557e-05,7.7013532087417e-05
-8.34107448703494e-05,0.000362324736256882,2.22838176648084e-05,8.77805586440704e-05
-7.35044523182185e-05,0.000369894526594551,3.24495848104307e-05,9.6195225290625e-05
-6.26325644631722e-05,0.000372982047377947,4.29679897000881e-05,0.000101217753278399
-6.02006948113856e-05,0.000373339675267915,4.65639751430118e-05,0.000102439932054183
-6.54935875829212e-05,0.000371193907928104,4.06727053658388e-05,0.000100431504252272
-7.45177313397963e-05,0.000366103670960884,3.15690316978041e-05,9.64467735545997e-05
-7.91072892610603e-05,0.000359630606152451,2.74634394950327e-05,9.13406940812466e-05
-7.77721451385108e-05,0.000351595899557823,2.87239086588978e-05,8.45702971443013e-05
-7.85589264964417e-05,0.00034193994652867,2.86931117537352e-05,7.48089951076393e-05
-8.27193309497434e-05,0.000328421612287856,2.34670763694291e-05,6.19386098964788e-05
-9.07301956850407e-05,0.000312197227012946,1.59488880922918e-05,4.772510894151e-05
-9.76324139614352e-05,0.000297749060258213,9.45172439298092e-06,3.37289005004297e-05
-0.000105011469424455,0.000283265130714484,2.7467615798543e-06,1.91658164651025e-05
-0.000111293799358237,0.000265550629231371,-5.62038631323157e-06,2.07187715951684e-06
-0.000119459636179187,0.00024421216512991,-1.26123822852067e-05,-1.75421444272082e-05
-0.000122570998821914,0.000224435342814645,-1.45931677615793e-05,-3.69518141249967e-05
-0.000119531161757181,0.000208950055179003,-1.31060962865177e-05,-5.3407724901654e-05
-0.000118303306001622,0.000194323074479286,-1.24752939701735e-05,-6.65098218025479e-05
-0.000120115287310796,0.0001827716936333,-1.34946954132136e-05,-7.7430407706176e-05
-0.000121164329121371,0.000173544894072109,-1.36181520151993e-05,-8.68040068663202e-05
-0.000117349631628372,0.000166320810694743,-1.22359085036972e-05,-9.44036239588572e-05
-0.000116956240949407,0.000159621248222664,-1.19048335480875e-05,-0.000100413127352684
-0.000121498115152008,0.000154471406607116,-1.50607759780468e-05,-0.000105693535883285
-0.000128233440413084,0.000149464616147555,-2.28554488963692e-05,-0.000110363800726417
-0.000139594086384421,0.000147795685994368,-3.61720115418565e-05,-0.000113063338971964
-0.000158369550607774,0.000148594388281965,-5.38442034971845e-05,-0.000112612152616844
-0.000174403201008034,0.000150597104465789,-7.02820567219901e-05,-0.000109922837638466
-0.000181400786721753,0.000154829034497084,-7.88517782044749e-05,-0.000106681307005407
-0.000180315982122182,0.000161027917923207,-7.81820062879832e-05,-0.000101692045748839
-0.000174641619601346,0.000172746191784512,-7.25166759279351e-05,-9.03882294189177e-05
-0.000167083750193343,0.00019325019080938,-6.64295943600836e-05,-6.98951928249668e-05
-0.000162374982975422,0.000220847142985293,-6.23197954210249e-05,-4.3805020215141e-05
-0.000161194810938526,0.00024614335573574,-6.18610160204732e-05,-1.96654391138234e-05
-0.000163662443379309,0.000265264526919396,-6.49135832712474e-05,-1.61444489218041e-06
-0.000163102159685025,0.000280213372720085,-6.63887430487815e-05,1.25514855796904e-05
-0.000155496606558359,0.00029538871618442,-5.88423478404244e-05,2.69371821509139e-05
-0.000136327751656041,0.000313746947869477,-4.01451856813307e-05,4.27061265161521e-05
-0.000109565264556722,0.00033061506334633,-1.5876770552435e-05,5.82341128921755e-05
-8.6474423794414e-05,0.000343179723213895,6.40858353056857e-06,7.08899882184832e-05
-7.06911129171319e-05,0.000351536294909495,2.21682133602468e-05,7.66835629427119e-05
-6.16669691602569e-05,0.000348508378774427,2.96634104582541e-05,7.11694686463189e-05
-5.87224995328486e-05,0.000332486649303833,3.01991914055261e-05,5.43949614414807e-05
-5.84602390802049e-05,0.000313031692089539,3.00787411067448e-05,3.37212836883825e-05
-5.13672859291605e-05,0.000299751776442038,3.69461905554678e-05,1.81671905693675e-05
-3.50356122872598e-05,0.000294744985982477,5.10074958186194e-05,1.01784117505577e-05
-2.03013432205524e-05,0.000290894525700481,6.38053523665809e-05,5.87590768078693e-06
-1.55448922839697e-05,0.000289177911828632,6.84940098784424e-05,2.71840026503005e-06
-1.59144411036039e-05,0.000292491930275674,6.71234169427332e-05,2.6746821751746e-06
-1.64866457275537e-05,0.000298523920686479,6.4507705445255e-05,6.9057119033356e-06
-1.96456920889432e-05,0.000303876418106342,5.99076756361988e-05,1.16168617846187e-05
-2.83241288855153e-05,0.000307118910975391,5.05011434701906e-05,1.2202490475082e-05
-3.85761283979492e-05,0.000306439417984451,3.9747269903767e-05,9.14151892178751e-06
-4.11391282760577e-05,0.000305449980822204,3.51864988428946e-05,6.69307348718244e-06
-3.63111517614813e-05,0.000307345408639038,3.82023035333298e-05,6.94960493086182e-06
-3.27944775101231e-05,0.000310373324774106,4.17442698719659e-05,8.00575139936168e-06
-3.48567983422755e-05,0.000312280673520605,3.91555294079307e-05,7.48168039905829e-06
-4.05550027224423e-05,0.000310981292187052,3.08203209692837e-05,5.14479680732613e-06
-4.98294860022954e-05,0.000309562701556844,2.09664780560759e-05,1.87252414077935e-06
-5.86986576735173e-05,0.000308394450449613,1.19547550488161e-05,-1.41108324902814e-06
-6.59942666288773e-05,0.000308465976027606,3.69727143377158e-06,-2.66552315156437e-06
-7.21573872660033e-05,0.000313854236236467,-4.19464169044274e-06,1.38881164992046e-06
-7.93933915730352e-05,0.000326740761205003,-1.19392453778049e-05,1.21962364881301e-05
-8.70943121370263e-05,0.000342357179066967,-1.97492111090066e-05,2.6510721415009e-05
-9.35673769454585e-05,0.000354778787778544,-2.70159183236497e-05,3.82837269543269e-05
-9.77158604690945e-05,0.000362920782740163,-3.2354244279693e-05,4.4015005715742e-05
-0.000100052362683556,0.000365090391939306,-3.51957523367779e-05,4.55286649674184e-05
-0.000101470953313765,0.000367593787169086,-3.62530992442919e-05,4.70093129487384e-05
-0.000100219255698875,0.000371968768356369,-3.59828097363468e-05,4.99718109279494e-05
-9.77397023284258e-05,0.000374555610093809,-3.38623692081023e-05,5.19492436842957e-05
-9.31024606884992e-05,0.000373911879891865,-2.9720571765999e-05,4.97772867926504e-05
-8.83817725409134e-05,0.000367593787169086,-2.46348565547918e-05,4.31080442188684e-05
-8.35299541670057e-05,0.00035941602941847,-1.98593521781373e-05,3.44682348781888e-05
-7.8487400918448e-05,0.000352895280891376,-1.55720561530189e-05,2.66060864065073e-05
-7.41124197311651e-05,0.000346934816058565,-1.10713338288718e-05,2.00120157999522e-05
-6.97493594735479e-05,0.000339007397830927,-5.78586767112795e-06,1.24268199505187e-05
-6.35147132584282e-05,0.000328373928569193,-9.90335197575767e-08,8.95875050186824e-07
-5.88536297591704e-05,0.000313651580432152,4.51376708550118e-06,-1.44955192063177e-05
-5.77092205112708e-05,0.000299549120637722,6.62966872412545e-06,-2.87924579928158e-05
-5.76019321442802e-05,0.000291788595425403,6.55577152851177e-06,-3.58645094022419e-05
-5.90086018448235e-05,0.000293600576734577,6.03698541657041e-06,-3.50010705902126e-05
-5.91993367194734e-05,0.000296592730080648,5.84077052677152e-06,-3.23170008830674e-05
-6.05225599123573e-05,0.000294017809272874,5.08163913642239e-06,-3.41552716629299e-05
-6.26325644631722e-05,0.000287210958433804,3.90617189313051e-06,-4.04986951963781e-05
-6.2263015643538e-05,0.0002823233772709,4.8943356097147e-06,-4.67233253867526e-05
-5.77807460892645e-05,0.000277268903092677,9.71457137558474e-06,-5.02864984134056e-05
-5.22375137947508e-05,0.000274610535777243,1.58601986792663e-05,-5.26397181309595e-05
-5.06162673602263e-05,0.000272536294015425,1.93052642955834e-05,-5.49856123607806e-05
-5.04255324855764e-05,0.000271558777782844,1.94946657987415e-05,-5.55561104364066e-05
-5.16295463818041e-05,0.000273370759092019,1.89604604740141e-05,-5.21430537180257e-05
-5.3739550932619e-05,0.000281298177319656,1.85735559172824e-05,-4.49556058342438e-05
-5.67555461380211e-05,0.000289595144366929,1.62597918462938e-05,-3.58093166213254e-05
-6.34312667507688e-05,0.000297462957946238,1.0629856163131e-05,-2.63928657783304e-05
-7.13944477674036e-05,0.000305593031978192,3.12643017309568e-06,-1.84122350737119e-05
-8.06689310472566e-05,0.000309956092235809,-4.00671065112603e-06,-1.34478646392298e-05
-8.716583771502e-05,0.000310885924749727,-9.62065531111998e-06,-1.09617326129157e-05
-9.12427956606624e-05,0.000313568133924492,-1.31982739115536e-05,-7.6818771211803e-06
-9.46402606153643e-05,0.000320029277803259,-1.49363870032576e-05,-5.70529017490946e-07
-9.82165395150506e-05,0.000330030937792715,-1.67876640515522e-05,1.01606549997819e-05
-0.000103104120677955,0.000339603444314208,-2.08572628694417e-05,2.17401734475164e-05
-0.000108993059932772,0.000349032899679714,-2.58596216042233e-05,3.14322246798781e-05
-0.000112640864410452,0.000354409238958909,-2.76063013260742e-05,3.75862187407677e-05
-0.000111091143553921,0.000354397318029244,-2.43310124907382e-05,3.94897488550813e-05
-0.000106763846085301,0.000351643583276485,-1.95077707649932e-05,3.76784748443893e-05
-0.000106811529803963,0.000346767923043246,-1.78967512509365e-05,3.37513310965074e-05
-0.00011087656681994,0.000340807458210436,-2.02820469379085e-05,2.88423079821342e-05
-0.000115656859615854,0.00033282043533447,-2.33750079541966e-05,2.28579998792423e-05
-0.000116574771200107,0.000324666519443185,-2.36095184752209e-05,1.57411491179895e-05
-0.000114572055016282,0.000316512603551901,-1.98382869940926e-05,8.27581217075719e-06
-0.000109910971517025,0.000307035464467732,-1.32644223875215e-05,8.93690508725547e-07
-0.000103425985778927,0.000297713297469216,-5.70973472125903e-06,-6.77237766555074e-06
-9.69886837594917e-05,0.00029000045597556,2.43405176293984e-06,-1.40078091643489e-05
-8.81195120882697e-05,0.000283408181870471,1.23910826084538e-05,-1.84069991310049e-05
-7.823706139547e-05,0.000281727330787619,2.4221057982598e-05,-1.88304325905958e-05
-6.96778338955542e-05,0.000281441228475644,3.47778180230819e-05,-1.73662078121395e-05
-6.40392341637155e-05,0.000281441228475644,4.07134615381872e-05,-1.61427267841153e-05
-6.39557876560561e-05,0.000282502191215884,4.30938977568119e-05,-1.35665132614851e-05
-6.26206435335066e-05,0.000287461297956782,4.61140231950287e-05,-6.64066087746872e-06
-5.92589413678015e-05,0.00029615165568302,5.09837940108729e-05,3.50511341571967e-06
-5.68628345050117e-05,0.000302803534436437,5.41336116952895e-05,1.1500921440355e-05
-6.12735784812914e-05,0.000303328055341724,5.20716273525962e-05,1.36766216258386e-05
-7.02142757305071e-05,0.000299382227622403,4.47649484006813e-05,1.1718500226251e-05
-8.23020984114467e-05,0.000295948999878704,3.33653243977493e-05,9.73486211884526e-06
-9.93251859739533e-05,0.00029489995806813,1.84673865272271e-05,9.93133592245794e-06
-0.000116884715371413,0.000295376795254755,2.52966204798804e-06,1.22902177829354e-05
-0.00012987852870694,0.00029778482304721,-9.71500979966845e-06,1.65378280613022e-05
-0.000138413914347524,0.000302433985616802,-1.61444947083207e-05,2.25475394612448e-05
-0.000143635281541066,0.000308024901629978,-1.9737714809991e-05,2.94708843584893e-05
-0.000147962579009687,0.000312793273496227,-2.35508568989857e-05,3.58674902232286e-05
-0.000152432927634294,0.000315654296615976,-2.61847432585132e-05,4.08345496353718e-05
-0.000153744229897513,0.000318574924384053,-2.54153898945081e-05,4.46871583166188e-05
-0.000152313718337638,0.000321280975418149,-2.3481441714445e-05,4.85196286319287e-05
-0.000154471406607116,0.000323331375320636,-2.47543090760889e-05,5.27157176579933e-05
-0.00016213656438211,0.000324881096177166,-2.99140766657192e-05,5.55205860379308e-05
-0.000169026861728839,0.000322330017228724,-3.60053464108443e-05,5.40395292238377e-05
-0.0001740336521884,0.000315094012921692,-4.05659128318311e-05,4.7752367611869e-05
-0.000177514563650761,0.000305104273861901,-4.21926270754224e-05,3.98587552222084e-05
-0.000175511847466937,0.000297510641664901,-3.89950199762722e-05,3.31225169255762e-05
-0.00016798974084793,0.000289154069969301,-3.07186498812207e-05,2.53909411725696e-05
-0.000159072885458045,0.000274610535777243,-2.10303694146538e-05,1.23011538821809e-05
-0.000153052815976907,0.000255322471578268,-1.34915071604124e-05,-5.73740686356885e-06
-0.000146651276746468,0.000237429156150172,-6.56257388177913e-06,-2.29846577709613e-05
-0.000137865551582906,0.000224089635854342,2.95506432295665e-06,-3.58093210267889e-05
-0.000128948696193021,0.000211632264353768,1.29656221865527e-05,-4.68398348664113e-05
-0.000124430663849751,0.000198435795213926,1.8022009413451e-05,-5.93893257427207e-05
-0.000125396259152666,0.000186634074844961,1.76002855203084e-05,-7.13094791578607e-05
-0.000126624114908225,0.000178158293852704,1.65275136814955e-05,-7.81322866053915e-05
-0.000128257282272415,0.000176548968347846,1.69012132384478e-05,-7.98772324895155e-05
-0.000127995021819772,0.000175750266060249,1.5862596518835e-05,-8.02085768087888e-05
-0.00013151169607113,0.000175571452115265,1.2801727126392e-05,-8.00512982740762e-05
-0.000133728988988935,0.000177812586892401,1.23306289906075e-05,-7.70847205876807e-05
-0.0001280546264681,0.000183093558734271,1.70516958724516e-05,-7.18458849846499e-05
-0.00012220145000228,0.000186467181829642,2.28228486255182e-05,-6.91436319196994e-05
-0.00012018681288879,0.000183117400593603,2.49807948128562e-05,-7.10816957801901e-05
-0.00012114048726204,0.000181853782049047,2.47533294778166e-05,-7.25468994456912e-05
-0.000119853026858153,0.000188851367762766,2.55354150646824e-05,-6.69000981249088e-05
-0.000117158896753722,0.000201022636951365,2.69721105646786e-05,-5.3753980919539e-05
-0.000117242343261382,0.000216758264109985,2.7321399458791e-05,-3.78573346093209e-05
-0.000117075450246063,0.000233507170290182,2.81191041928962e-05,-2.21038060053075e-05
-0.000112223631872155,0.000250566020641686,3.11333032550148e-05,-5.66540221700019e-06
-0.000109505659908394,0.000266885773353921,3.29628949977032e-05,1.12375530176015e-05
-0.000114834315468926,0.000280928628500022,2.80463868115959e-05,2.47692127751119e-05
-0.000126492984681903,0.000288724916501338,1.59677828678815e-05,3.14163519394959e-05
-0.000139307984072446,0.000289654749015257,1.14965781822293e-06,3.2285261533079e-05
-0.0001535058113042,0.000289440172281275,-1.36588834326233e-05,3.16556380361306e-05
-0.00016771555946562,0.000290882604770816,-2.86282110289608e-05,3.24296261468301e-05
-0.000181198130917438,0.000293469446508255,-4.19218391040904e-05,3.4600542363906e-05
-0.000185036670269768,0.000297474878875904,-4.8785323394947e-05,3.75061573430374e-05
-0.000182282935517009,0.000302350539109143,-4.7080416015536e-05,4.17255609890326e-05
-0.000176119814879883,0.000308191794645297,-4.03244204250188e-05,4.81767097848331e-05
-0.000167655954817292,0.000318455715087397,-3.40344185666884e-05,5.6203487147262e-05
-0.00016270876900606,0.000326085110073394,-3.15994140792909e-05,6.34006485487249e-05
-0.000164961824712862,0.00033023359359703,-3.39260204202417e-05,6.74487176924552e-05
-0.00016943217333747,0.00033129455633727,-3.96097318531563e-05,6.77819261445559e-05
-0.000172185908090228,0.000329816361058734,-4.43050868225374e-05,6.51213993156116e-05
-0.000168907652432183,0.000325572510097772,-4.31488500239314e-05,5.96034509039394e-05
-0.000161063680712204,0.000315940398927951,-3.5783326786963e-05,5.02858528254699e-05
-0.000150740155621776,0.000303113478607743,-2.70846403125289e-05,3.70672667085042e-05
-0.00014321804900277,0.000290739553614828,-2.16478233983231e-05,2.22866509999865e-05
-0.000139462956158099,0.000278151051887933,-1.92921012573023e-05,9.16067508628836e-06
-0.000135564812157441,0.000266408936167296,-1.68271424660087e-05,-1.21009376289185e-06
-0.000129485138027974,0.000260269657389501,-1.20965151900701e-05,-9.98764087673229e-06
-0.000120472915200765,0.000253999248385385,-5.09352278315381e-06,-1.76408849269484e-05
-0.000111079222624256,0.00024834872772388,2.90533460418412e-06,-2.24246298307368e-05
-0.000102686888139658,0.000249099746292814,9.86571023759499e-06,-2.26550181046948e-05
-9.66072140101918e-05,0.000254297271627025,1.42530847826748e-05,-1.91613305487102e-05
-9.29117258138493e-05,0.000259804741132542,1.70566606815772e-05,-1.40861114959429e-05
-8.6224084271436e-05,0.000266349331518968,2.10926029372731e-05,-8.14330692073817e-06
-7.987022875966e-05,0.000273990647434631,2.71060006033816e-05,-8.03133377051219e-07
-7.34448476698904e-05,0.000283491628378131,3.20466910136224e-05,7.1451394368833e-06
-7.11560291740912e-05,0.00029048921409185,3.24855613819264e-05,1.31510208402449e-05
-7.41243406608308e-05,0.000292956846532634,2.83918052871632e-05,1.54718142785589e-05
-7.93576287840383e-05,0.000292611139572331,2.23441203624555e-05,1.47452022989229e-05
-8.40663960019586e-05,0.00029231311633069,1.65239350082102e-05,1.25344897213397e-05
-8.63432935680922e-05,0.000290811079192822,1.19863843536568e-05,9.87901964825399e-06
-8.94546562108192e-05,0.000287854688635748,9.4785359624022e-06,8.15120195845652e-06
-8.82625632442572e-05,0.000291764753566072,8.99097281348806e-06,9.56943677556651e-06
-8.66174749504015e-05,0.000298142450937179,9.12214548490097e-06,1.47797417422335e-05
-8.77857260576323e-05,0.000303542632075705,8.40518781376923e-06,2.05099987308142e-05
-8.7857251635626e-05,0.00030622484125047,6.76649042142683e-06,2.17366413873715e-05
-8.95738655074755e-05,0.000302076357726834,4.62762941507379e-06,1.6671127564103e-05
-9.20295770185934e-05,0.000295054930153783,1.63530847530228e-06,8.40800351916912e-06
-9.54032001139641e-05,0.000288152711877388,-2.1528557831653e-06,1.33581992641303e-06
-9.74655209461165e-05,0.00028539897712463,-4.72729414593416e-06,-3.01381928785608e-06
-9.63449535575481e-05,0.00028281213538719,-3.74520394201996e-06,-6.37628070285334e-06
-9.15765816912998e-05,0.000278365628621914,5.3661260418625e-07,-1.14382976283101e-05
-8.66055540207359e-05,0.000271689908009166,5.57279978338695e-06,-1.98568052703879e-05
-8.26001216530872e-05,0.000260424629475154,9.66106675774217e-06,-3.14630871279811e-05
-7.84993218481136e-05,0.000248563304457861,1.32896011052571e-05,-4.43094245091483e-05
-7.48872801594305e-05,0.000238335146804759,1.74276146196573e-05,-5.58747158312837e-05
-7.04526943238195e-05,0.000230419649506786,2.1987752688351e-05,-6.48182177998263e-05
-6.61969224331929e-05,0.000224792970704613,2.62480265627661e-05,-7.11842046271392e-05
-6.33239783837782e-05,0.000221622003413558,2.96194710976839e-05,-7.49231985233897e-05
-6.16908110195882e-05,0.000222933305676776,3.17459603512331e-05,-7.56132570245509e-05
-6.05821645606854e-05,0.000224781049774948,3.2785247058059e-05,-7.42241409278016e-05
-6.10113180286478e-05,0.000226342691561144,3.36240456713311e-05,-7.31645751796587e-05
-5.98549878510826e-05,0.000228023542643997,3.47977441024609e-05,-7.2652137508443e-05
-5.97953832027544e-05,0.00023394824468781,3.52256103961648e-05,-6.85053317025928e-05
-6.34074248914376e-05,0.000245499625533797,3.32135899183976e-05,-5.64525651026187e-05
-6.76155130634017e-05,0.00026495458274809,2.88562114946876e-05,-3.83501670016588e-05
-7.30037732722624e-05,0.000283610837674787,2.42169364223452e-05,-2.11335546367544e-05
-7.77721451385108e-05,0.000295174139450439,2.07756581695727e-05,-9.11965533325854e-06
-8.13126612492002e-05,0.000305473822681536,1.78357129107244e-05,-4.86344973175772e-07
-8.53300145465144e-05,0.000313603896713489,1.39517951745722e-05,7.28047844928835e-06
-9.2291837471237e-05,0.000318455715087397,8.86450939415428e-06,1.19760202015742e-05
-9.81688557963881e-05,0.000317680854659131,3.27241382592804e-06,1.01762345892808e-05
-0.000104796892690473,0.00031237604095793,-2.53971693368667e-06,4.32773316823957e-06
-0.000112164027223827,0.00031017066896979,-8.95374480382761e-06,2.11665251155738e-06
-0.000120425231482102,0.000316584129129894,-1.61349260511778e-05,8.30995072706392e-06
-0.00012835264970974,0.000329244156434784,-2.34750136480261e-05,2.02203144876998e-05
-0.000135874756328747,0.000341272374467395,-3.00596742777665e-05,3.21503082861146e-05
-0.000142323979277848,0.000350642225184573,-3.57931788027637e-05,4.17239602267327e-05
-0.000149762639389195,0.00035892727130218,-4.2070919846852e-05,5.02992820759534e-05
-0.000159001359880052,0.000368678591768658,-5.061425931915e-05,5.91658294176577e-05
-0.000169587145423123,0.000376677535574289,-6.0939350785047e-05,6.7597039791307e-05
-0.000179874907724554,0.000382041953923819,-6.97337358984781e-05,7.40257371105416e-05
-0.000184619437731471,0.000385832809557486,-7.39890841062808e-05,7.74507556945555e-05
-0.000185549270245389,0.000386261963025448,-7.41669450709685e-05,7.77669427023443e-05
-0.000183928023810865,0.000383090995734393,-7.2591866789482e-05,7.579969995305e-05
-0.000182354461095003,0.000379705451709357,-6.91853893859006e-05,7.30267466887477e-05
-0.000174796591686999,0.000376951716956599,-6.13079360337853e-05,7.05596007998174e-05
-0.000161361703953845,0.00037457945195314,-4.83691109701591e-05,6.8364772687788e-05
-0.000148665913859958,0.000370430968429504,-3.40608656637713e-05,6.57423598284641e-05
-0.000137770184145581,0.000366079829101552,-2.255829379516e-05,6.22280304444538e-05
-0.000129616268254296,0.000361454508391291,-1.44458564918608e-05,5.777885626433e-05
-0.000123286254601851,0.000355267545894834,-8.00579891152699e-06,5.26410504334096e-05
-0.000118803985047578,0.000348544141563424,-2.51263693821431e-06,4.73780896984848e-05
-0.000114929682906251,0.00034300090926891,2.23172158233905e-06,4.23489017168025e-05
-0.000107944018122197,0.000336253663078169,8.28886192108864e-06,3.67567739728439e-05
-9.83238278820412e-05,0.000327706356507919,1.83605386452182e-05,2.90976716164262e-05
-8.63909772867547e-05,0.000316846389582538,3.19319554528184e-05,1.92155760651764e-05
-7.27057500306219e-05,0.000305032748283908,4.47546062089025e-05,9.00304105982968e-06
-6.46710434359934e-05,0.000295615213848067,5.26425453016216e-05,1.4183221700781e-07
-6.3741210922075e-05,0.000286698358458183,5.44965769989642e-05,-8.00207775919417e-06
-6.6947941002127e-05,0.000275993363618455,5.17911366413882e-05,-1.7099460988621e-05
-7.10845035960974e-05,0.000264799610662437,4.6867744353025e-05,-2.72819040435089e-05
-7.63773963676331e-05,0.000254178062330369,4.19285032635791e-05,-3.72865172967766e-05
-8.09550333592315e-05,0.000244152560481582,3.80093528604468e-05,-4.65336460884921e-05
-8.45432331885834e-05,0.000234162821421791,3.43378143005043e-05,-5.52112355583246e-05
-8.85844283452289e-05,0.000225698961359201,2.97085410346709e-05,-6.24465090653405e-05
-9.49263629273392e-05,0.000222051156881521,2.45208943237394e-05,-6.64668847632054e-05
-9.85622464753536e-05,0.00021992923140104,2.02426462131514e-05,-6.71702810173532e-05
-0.00010194779050039,0.000219416631425418,1.70327637432763e-05,-6.67970508017406e-05
-0.000105881697290045,0.000218939794238793,1.35500311558897e-05,-6.70799806641078e-05
-0.000110137469180672,0.000218546403559828,9.25744422078806e-06,-6.70738067651514e-05
-0.000113749510869355,0.000220012677908699,5.20641186526488e-06,-6.48913548962807e-05
-0.0001174092362767,0.000224483026533307,2.14831686765922e-06,-6.0473380731838e-05
-0.000120782859372071,0.000228750719353599,-5.07291404338738e-07,-5.54414745947863e-05
-0.000122487552314255,0.000233149542400214,-3.36623312370632e-06,-5.11077962630454e-05
-0.000125968463776616,0.000237226500345856,-6.23603053026026e-06,-4.78795798359477e-05
-0.000129389770590649,0.000238037123563118,-9.07988602102928e-06,-4.57989997430028e-05
-0.00013276339368602,0.000240147128113933,-1.20532505434994e-05,-4.41084747160515e-05
-0.000133681305270273,0.000244557872090213,-1.39670183640064e-05,-4.06981933205049e-05
-0.000132942207631004,0.000252175346146545,-1.26417123530179e-05,-3.3591540850008e-05
-0.000129592426394965,0.000261449829426398,-7.9578716189615e-06,-2.30448052032862e-05
-0.000124120719678445,0.000275230424119855,-2.9814257564403e-06,-1.10557489396954e-05
-0.000121426589574014,0.000288701074642007,-7.53876830908344e-07,8.88147219038851e-07
-0.00012249947324392,0.000299048441591766,-1.21396800873131e-06,1.20952533720199e-05
-0.000125455863800994,0.000308489817886938,-2.4415969707155e-06,2.10778030356899e-05
-0.000125908859128288,0.000316250343099257,-3.58592791563242e-06,2.5939621071889e-05
-0.000126194961440263,0.000316882152371535,-5.15513451244806e-06,2.69228282723729e-05
-0.000131011017025174,0.0003168940733012,-7.52953466976222e-06,2.63745839889757e-05
-0.000135421761001453,0.000317120570964847,-1.06324137107726e-05,2.49317985547822e-05
-0.000136327751656041,0.000313234347893855,-1.41633759397991e-05,1.9742104103181e-05
-0.000140416630531349,0.000303041953029749,-1.68282980833643e-05,8.45992636469173e-06
-0.000141906746739551,0.00028836728861137,-1.62958784597774e-05,-6.38827052192915e-06
-0.000136470802812028,0.000277507321685989,-1.14988764840766e-05,-1.93373887467133e-05
-0.00012911558920834,0.00027099849408856,-4.53193210588555e-06,-2.74573528619337e-05
-0.00012440682199042,0.000267040745439574,8.61662934873076e-07,-3.15780354011494e-05
-0.000124943263825373,0.000267255322173555,2.25526497671495e-06,-3.28242954105422e-05
-0.000127244003250837,0.000270438210394276,-4.96611188802293e-07,-3.10582189650793e-05
-0.000131607063508455,0.00027598144268879,-5.87108695350865e-06,-2.69949236884688e-05
-0.000139021881760471,0.000281190888952666,-1.11243842046216e-05,-2.2490354256492e-05
-0.000142228611840523,0.000286531465442864,-1.35602088607912e-05,-1.72726486900148e-05
-0.000140595444476333,0.000298488157897482,-1.29282602864487e-05,-8.35707622806151e-06
-0.000139534481736093,0.000311744231685652,-1.14094667403483e-05,4.90616057444394e-06
-0.000139760979399739,0.000324559231076195,-9.74548924099065e-06,1.75606166099696e-05
-0.00013401509130091,0.000332570095811492,-4.96470257145791e-06,2.40814891401284e-05
-0.000123870380155467,0.000335586091016894,5.8023033531397e-06,2.55339789181345e-05
-0.000110137469180672,0.000337851067653362,2.04412569496101e-05,2.83218944768271e-05
-9.66429767991887e-05,0.000346183797489631,3.33796363499192e-05,3.60310052393305e-05
-8.97169166634629e-05,0.00035701992255568,4.12740469381855e-05,4.58804807059792e-05
-8.68558935437139e-05,0.000365567229125931,4.46198568846166e-05,5.38377333513729e-05
-8.64267400757515e-05,0.000371050856772116,4.45213040524628e-05,5.97073793931166e-05
-9.01103073424284e-05,0.000376474879769974,4.13353667045708e-05,6.50652489300572e-05
-9.54628047622922e-05,0.000380742572590266,3.67895474756821e-05,6.88266647125657e-05
-9.83119069523756e-05,0.000380361102840966,3.38255932639496e-05,6.81451849224533e-05
-9.88721906466598e-05,0.000373768828735878,3.26529960049347e-05,6.28613535777219e-05
-0.000103187567185615,0.000367069266263799,2.94868478348302e-05,5.5987552846881e-05
-0.000111401087725227,0.000360465071229045,2.11950568424861e-05,4.93743641625963e-05
-0.000122857101133889,0.000351512453050164,9.50299375166515e-06,4.14029252883528e-05
-0.000133502491325288,0.000339758416399861,-1.34718802034405e-06,3.0274572389617e-05
-0.000143003472268788,0.000326335449596372,-9.91610728669176e-06,1.77868438027361e-05
-0.00015100241607442,0.000315654296615976,-1.85438368079498e-05,7.73754329403392e-06
-0.000161552438828494,0.000308465976027606,-2.94765553600741e-05,1.19649900080527e-06
-0.000174605856812349,0.000301074999634922,-4.17298908510578e-05,-4.29018417735142e-06
-0.000184428702856821,0.000294554251107827,-5.20434002028341e-05,-1.01495807087961e-05
-0.000189936172362338,0.000289666669944922,-5.80313015949877e-05,-1.35764783820764e-05
-0.000192177307139475,0.0002914428884651,-6.01144877195055e-05,-1.09387462420502e-05
-0.000193166744301721,0.000297117250985935,-6.07444951294407e-05,-3.47431157920818e-06
-0.00019344092568403,0.000301492232173218,-6.1922130036888e-05,3.04069595842882e-06
-0.000194430362846277,0.00030295850652209,-6.34824047737618e-05,4.82430884303322e-06
-0.000195658218601836,0.000300359743854984,-6.37118197567382e-05,4.02282411717387e-06
-0.000192213069928471,0.000298666971842466,-6.10604394621308e-05,4.84942314675334e-06
-0.000185072433058764,0.00030047895315164,-5.46893795759821e-05,7.82171461992582e-06
-0.000174069414977396,0.000301527994962215,-4.39238604326937e-05,1.0046980164123e-05
-0.000159430513348014,0.0002994179904114,-2.84282630915719e-05,9.96602263485045e-06
-0.000138986118971474,0.000296366232417001,-9.25993231043596e-06,8.99875464457918e-06
-0.00011836291064995,0.000294554251107827,1.08036888816348e-05,8.59784387437641e-06
-0.00010088682776015,0.000292909162813971,2.8170663239578e-05,8.29888142246758e-06
-8.99434143271097e-05,0.000290250795498538,3.97731522564121e-05,7.31787809139137e-06
-8.3613400674665e-05,0.000286626832880189,4.458848058265e-05,5.80827096464996e-06
-8.31365634880402e-05,0.000282740609809197,4.47884755988099e-05,3.42330708085898e-06
-8.31604053473714e-05,0.000277173535655352,4.44767365682806e-05,-1.44546021533212e-06
-8.24570704970998e-05,0.000267303005892217,4.58712076817001e-05,-9.38986608741297e-06
-7.96318101663476e-05,0.000256633773841487,4.73034163572895e-05,-1.81499331610623e-05
-7.96794938850101e-05,0.000249540820690442,4.62927186106127e-05,-2.46142488821616e-05
-8.32438518550308e-05,0.000244987025558175,4.35087266357782e-05,-2.79493612870733e-05
-8.54849866321675e-05,0.000242280974524079,4.13965902543293e-05,-2.95153131221594e-05
-8.54730657025019e-05,0.000239825263012961,3.9519286679938e-05,-3.0495262654571e-05
-9.04083305840689e-05,0.000238490118890412,3.44156060454982e-05,-3.12039553251076e-05
-0.000100815302182156,0.000236701979440569,2.48314520063759e-05,-3.24290442364119e-05
-0.000110697752874956,0.000232672705213589,1.44164255437045e-05,-3.57822867848513e-05
-0.000115537650319198,0.000224971784649598,7.77102836961194e-06,-4.21673218907477e-05
-0.000118303306001622,0.000216639054813329,5.71333550382999e-06,-5.06458199265394e-05
-0.000118446357157609,0.000207829487790435,5.8477897840434e-06,-5.91090517760305e-05
-0.000116908557230744,0.000201272976474343,6.04662388757045e-06,-6.55983501693422e-05
-0.000117075450246063,0.00019708873016171,5.58801405185027e-06,-6.89832264882048e-05
-0.000118625171102594,0.000197327148755023,4.11298399705276e-06,-6.90812396821457e-05
-0.000120925910528058,0.000200617325342734,1.57476053553752e-06,-6.65136056443007e-05
-0.000122654445329573,0.000204694283288377,-8.44235872888418e-07,-6.21090551868153e-05
-0.00012249947324392,0.000211155427167143,-1.04544917723982e-06,-5.60904592114771e-05
-0.000119400031530859,0.000219559682581406,2.25345629314684e-06,-4.79789676696068e-05
-0.000112760073707108,0.000230956091341739,7.83303165028405e-06,-3.76347947303855e-05
-0.000109219557596419,0.000243604197716963,1.15879286464036e-05,-2.63353019212865e-05
-0.00011193752956018,0.000252795234489157,8.78734054026033e-06,-1.61343911763628e-05
-0.000120604045427087,0.000263345257243231,-1.20118164263699e-06,-7.53647042538488e-06
-0.000131928928609427,0.000274527089269584,-1.23725902965895e-05,1.56664174042799e-06
-0.000136911877209656,0.000285983102678245,-1.66154700404367e-05,1.31562263990391e-05
-0.000130009658933262,0.000298762339279791,-1.17083759260659e-05,2.52569604827058e-05
-0.000121319301207024,0.000309014338792225,-3.095432022896e-06,3.30041952084762e-05
-0.000116705901426429,0.000312674064199571,2.5571749736204e-06,3.48355246043089e-05
-0.000114691264312939,0.000313079375808202,2.86268547017683e-06,3.56191034428066e-05
-0.000118982798992562,0.000321161766121493,-1.80548873169783e-06,4.12618794639199e-05
-0.000128996379911684,0.000333440323677082,-1.10885435539626e-05,5.16298627223393e-05
-0.000139021881760471,0.000345218202186716,-2.27673017727609e-05,6.18343967606041e-05
-0.000147962579009687,0.000353658220389975,-3.13120174200201e-05,6.95110278239579e-05
-0.00014917851383558,0.000362849257162169,-3.28792043479454e-05,7.6635893115607e-05
-0.000145959862825862,0.000372362159035334,-3.05395745914913e-05,8.36839665805911e-05
-0.000145089634960272,0.000376069568161343,-3.03695214055409e-05,8.65147096588916e-05
-0.000148749360367618,0.000372576735769316,-3.29859047753366e-05,8.13689739133499e-05
-0.000147557267401056,0.000362801573443507,-3.33500136828488e-05,6.95924129553239e-05
-0.000142228611840523,0.000349855443826642,-2.91435345578516e-05,5.4717977099695e-05
-0.000138628491081505,0.000334632416643644,-2.45810914208193e-05,3.78387746543802e-05
-0.000137937077160899,0.000316441077973907,-2.41110970756328e-05,1.91633312613484e-05
-0.000137829788793909,0.000302469748405799,-2.62730645834226e-05,1.59835502756688e-06
-0.000138592728292509,0.000289928930397566,-2.65937170112907e-05,-1.14701228799796e-05
-0.000136458881882362,0.0002815604377723,-2.37111842164774e-05,-2.07952010858901e-05
-0.000130081184511255,0.000275659577587818,-1.92852134696821e-05,-2.97177423559416e-05
-0.000123739249929145,0.000267148033806564,-1.35406832759669e-05,-3.86444776278268e-05
-0.00011547804567087,0.000262391582869982,-4.59150945573215e-06,-4.49842884138955e-05
-0.000102186209093702,0.000260806099224454,7.75890269086373e-06,-4.83387329277392e-05
-8.90493446021881e-05,0.000258123890049689,2.01958096825638e-05,-5.14740103961541e-05
-7.99894380563162e-05,0.000256824508716137,2.86615727620144e-05,-5.52859199833547e-05
-7.74145172485421e-05,0.000255465522734256,3.16738889627825e-05,-5.67125222483605e-05
-7.71284149365672e-05,0.000259614006257892,3.0680776823233e-05,-5.33331489633542e-05
-7.9619889236682e-05,0.000268709675592761,2.83070246845703e-05,-4.69111226167326e-05
-8.03232240869536e-05,0.000274765507862896,2.65330819231972e-05,-4.04606808409757e-05
-8.18491030841531e-05,0.000281167047093335,2.56821737569039e-05,-3.43958091209998e-05
-8.15868426315095e-05,0.000290060060623888,2.47759743442617e-05,-2.76064693618219e-05
-8.28027774574028e-05,0.000297856348625204,2.3123588757402e-05,-2.01522949997098e-05
-8.52227261795238e-05,0.000304925459916917,2.12733977361796e-05,-1.2720719205904e-05
-8.54492238431706e-05,0.000313830394377136,1.99639246109386e-05,-5.02632836598308e-06
-8.63790563570891e-05,0.000322568435822036,1.88088453682052e-05,3.38528740262505e-06
-8.84175353299102e-05,0.000332105179554533,1.70230334986647e-05,1.21224291364332e-05
-9.02891212874127e-05,0.000339841862907521,1.49586284674123e-05,2.10681523564267e-05
-9.05871445290532e-05,0.000350618383325242,1.350222925068e-05,3.05548431605384e-05
-9.32216699851555e-05,0.000359058401528502,1.1923036045045e-05,3.88591520249744e-05
-9.71317349154791e-05,0.00036162140140661,7.84354108097141e-06,4.21128863668916e-05
-0.000103735929950233,0.000358855745724186,1.0107745062152e-07,3.94711810954422e-05
-0.000114107138759323,0.000356209299338418,-9.31749164831227e-06,3.62638934230079e-05
-0.000121855743041977,0.000357139131852337,-1.70210717745252e-05,3.83844299955688e-05
-0.000125861175409625,0.000363683722238762,-2.12276937865228e-05,4.45991771280144e-05
-0.000126397617244578,0.000366568587217843,-2.22021499687072e-05,4.8124441684239e-05
-0.000125825412620629,0.000362837336232503,-2.0369155824126e-05,4.54346358790615e-05
-0.000120592124497421,0.000357460996953308,-1.5494774625344e-05,3.96248971318718e-05
-0.000113332278331058,0.000351262113527186,-8.10117656131868e-06,3.46413180895086e-05
-0.000105834013571382,0.000346255323067625,-5.54600579600937e-07,3.02439303697682e-05
-0.000102210050953034,0.000339329262931899,4.29887631007316e-06,2.44667293881172e-05
-0.000100958353338143,0.000332748909756476,5.40455402399369e-06,1.77678997087142e-05
-0.00010232926024969,0.00032590629612841,3.8157484859702e-06,1.19964826980076e-05
-0.000106441980984329,0.000319170970867334,1.02431343872537e-06,7.14851373997376e-06
-0.000110256678477328,0.00031371118508048,-2.14742815880159e-06,1.77832007572858e-06
-0.000112724310918111,0.000307309645850041,-4.96871933289096e-06,-4.39983802133776e-06
-0.00011490584104692,0.000298786181139122,-6.27951206521287e-06,-1.05278552505038e-05
-0.000115132338710567,0.000291979330300053,-5.39767840688334e-06,-1.6464717257613e-05
-0.000113105780667411,0.000285935418959583,-3.01181683593499e-06,-2.24798434013523e-05
-0.00011068583194529,0.000279593484377473,-3.53246302922922e-07,-2.74223217769198e-05
-0.000109183794807422,0.00027559997293949,2.12981832391181e-06,-2.93187358778008e-05
-0.000108134752996847,0.000276458279875414,4.40257074735148e-06,-2.81889576756681e-05
-0.000106954580959951,0.000277245061233345,5.60882077093071e-06,-2.67663954631539e-05
-0.000108969218073441,0.000274336354394934,4.58217285969682e-06,-2.77531521467856e-05
-0.000112736231847777,0.000269579903458351,1.65979197627878e-06,-3.10904404407523e-05
-0.000116682059567097,0.000266242043151977,-1.40006909197932e-06,-3.42516989364259e-05
-0.000119769580350493,0.000264513508350462,-3.61838327212904e-06,-3.47616681201378e-05
-0.000121855743041977,0.000264680401365781,-5.30076490401062e-06,-3.24685189989161e-05
-0.000123214729023858,0.000267028824509908,-5.62730200835945e-06,-2.9763156550143e-05
-0.000120747096583074,0.000266933457072583,-1.82415990125149e-06,-2.91385317428885e-05
-0.000112247473731486,0.000264334694405478,7.09989494991564e-06,-2.9842330652568e-05
-0.000102686888139658,0.000265669838528027,1.6929452776698e-05,-2.76404232586094e-05
-0.000100088125472553,0.00027312041956904,2.13593969063203e-05,-1.93026139345506e-05
-0.000103342539271268,0.000284624116696365,1.88143072332221e-05,-7.11930708515101e-06
-0.000108349329730828,0.000292623060501996,1.40162515864161e-05,2.68595247332853e-06
-0.000110852724960609,0.000295627134777733,1.22869057213047e-05,6.45121091877347e-06
-0.000110518938929971,0.000295293348747095,1.44311192116426e-05,6.54657451079606e-06
-0.00010703802746761,0.000295412558043752,1.80569747130145e-05,7.69250942289215e-06
-0.000103878981106221,0.00029710533005627,2.1421579543649e-05,1.13164583287628e-05
-0.000102722650928655,0.000300836581041609,2.39140466622369e-05,1.49566396073425e-05
-0.000103545195075583,0.000301909464711515,2.45133368356411e-05,1.62619593877508e-05
-0.000104868418268467,0.000298857706717116,2.24785292659822e-05,1.56083882169158e-05
-0.000109398371541403,0.000297892111414201,1.89057458759674e-05,1.46906405581864e-05
-0.000115025050343576,0.00029729606493092,1.52078162895644e-05,1.4288453014951e-05
-0.000118803985047578,0.00029634239055767,1.04863423772404e-05,1.42940883255747e-05
-0.000127327449758497,0.000295352953395423,2.95456657501589e-06,1.47285366268416e-05
-0.000137603291130262,0.000296020525456698,-6.21891343283715e-06,1.53102373438089e-05
-0.000144827374507628,0.000294792669701139,-1.35529605055396e-05,1.4417818561683e-05
-0.000150227555646155,0.000289630907155925,-1.83842994327967e-05,1.00613314550614e-05
-0.000156605253017262,0.000281059758726344,-2.41217891642931e-05,2.50699291070932e-06
-0.000165200243306174,0.000273513810248006,-3.26835452149483e-05,-4.97781629965392e-06
-0.000173997889399403,0.00026993753134832,-4.06962628592691e-05,-8.90226139739378e-06
-0.000177276145057448,0.000268733517452092,-4.40521166807498e-05,-8.79328583472657e-06
-0.00017749072179143,0.000269877926699992,-4.39904476813236e-05,-7.08212325836716e-06
-0.000179028521718295,0.00027118922896321,-4.50407436599093e-05,-6.16542505070281e-06
-0.000182378302954334,0.000271308438259866,-4.8225907672948e-05,-6.36148748904421e-06
-0.00018432141448983,0.000269687191825342,-5.04810456330349e-05,-6.3872678768577e-06
-0.000184917460973111,0.000271618382431172,-5.06128145463526e-05,-4.62606637817988e-06
-0.000185668479542046,0.000277054326358695,-5.10616043059633e-05,1.43512808335295e-07
-0.000186216842306664,0.00028471948413369,-5.19566348712514e-05,7.86774920423912e-06
-0.000181484233229413,0.000291848200073731,-4.75916831770633e-05,1.63356959655238e-05
-0.000167310247856989,0.000298237818374504,-3.26237366390987e-05,2.21760719360439e-05
-0.000144505509406657,0.000301098841494253,-1.00951160036604e-05,2.36493443839439e-05
-0.000123405463898508,0.000297999399781191,1.0070387369874e-05,2.19565472903283e-05
-0.000113821036447348,0.000295221823169102,2.0175470111387e-05,1.94530811311068e-05
-0.000113916403884673,0.000295031088294452,2.02391842120452e-05,1.76769719339712e-05
-0.000117647654870013,0.000294923799927461,1.55138617939752e-05,1.76956199525561e-05
-0.000121366984925686,0.000296926516111285,1.16122551485094e-05,2.05475777303913e-05
-0.00012124777562903,0.000302648562350783,1.19629476814429e-05,2.53880413600376e-05
-0.000115942961927829,0.00030671359936676,1.6690107346991e-05,2.82212506348035e-05
-0.000109684473853378,0.000302052515867502,2.23903708162437e-05,2.4839976837863e-05
-0.000106990343748948,0.000293147581407284,2.48666771000018e-05,1.49961196478887e-05
-0.0001079082553332,0.000281381623827316,2.3599461936194e-05,2.01459071311676e-06
-0.000108516222746147,0.000267660633782186,2.24934500910988e-05,-1.11359880141339e-05
-0.000105535990329742,0.000255560890171581,2.5375059542557e-05,-2.30536938028863e-05
-9.72390232824697e-05,0.000249731555565092,3.21243624286163e-05,-3.16997848424494e-05
-8.99314933974441e-05,0.000245201602292156,4.02678224874554e-05,-3.46319605396511e-05
-8.05735636099317e-05,0.000247275844053974,4.86625868403015e-05,-3.28810460978363e-05
-7.05242199018133e-05,0.000250792518305333,5.75003390382026e-05,-3.17356155861101e-05
-6.28232993378222e-05,0.000246751323148687,6.55121568169974e-05,-3.53635718240174e-05
-5.77807460892645e-05,0.000239348425826336,6.9744166313707e-05,-4.23752612271652e-05
-5.81979786275612e-05,0.000235056891146713,6.87430803533299e-05,-4.86397671649038e-05
-6.16192854415944e-05,0.000231492533176692,6.43668253487732e-05,-5.25405189294809e-05
-6.65545503231615e-05,0.00022962094721919,5.95077004709459e-05,-5.48200665372213e-05
-7.03573268864946e-05,0.000229704393726849,5.48107052556904e-05,-5.48650840191139e-05
-7.57694289546865e-05,0.000235450281825678,4.81770288142771e-05,-5.08122076413609e-05
-8.80360655806104e-05,0.000243175044249001,3.6759798192195e-05,-4.32376467490659e-05
-0.000103521353216252,0.000251626983381926,1.90935388568713e-05,-3.53861671343107e-05
-0.0001261472777216,0.000259077564422939,-3.58825569661107e-06,-2.88043330529958e-05
-0.000149846085896855,0.000266861931494589,-2.71623455261123e-05,-2.13255571535548e-05
-0.000167834768762277,0.000279235856487504,-4.66460259987649e-05,-1.06560532445702e-05
-0.000179934512372882,0.000291705148917743,-5.99044965111217e-05,2.16345102479048e-06
-0.000190413009548963,0.000305068511072905,-6.91227308837964e-05,1.45215012527176e-05
-0.000196444999959767,0.000317513961643813,-7.73343373144578e-05,2.59293495629533e-05
-0.000202476990370571,0.000330197830808033,-8.38380999848319e-05,3.80223806259601e-05
-0.000203812134493121,0.000344431420828785,-8.50430273749156e-05,5.14788969403318e-05
-0.000197935116167969,0.00035740139230498,-8.02945272688253e-05,6.45129137693897e-05
-0.000191652786234187,0.000369393847548595,-7.44373824504896e-05,7.44063179997732e-05
-0.000189208995652735,0.000374627135671802,-7.25889896396062e-05,7.96433124546221e-05
-0.000189673911909694,0.000375735782130705,-7.38229708464284e-05,8.06827812076621e-05
-0.000188517581732129,0.000376200698387664,-7.26291819460818e-05,7.93726239539259e-05
-0.000180923949535128,0.000374746344968459,-6.60194745675662e-05,7.74877702575052e-05
-0.000170397768640385,0.000372421763683663,-5.61679540264773e-05,7.51778644612076e-05
-0.000159966955182967,0.000369310401040936,-4.56717835524361e-05,7.07298246383021e-05
-0.000147092351144096,0.000361299536305638,-3.35624682333804e-05,6.20837182274842e-05
-0.00013074875657253,0.000348043462517468,-1.79004970013049e-05,4.85811248851772e-05
-0.000112855441144433,0.000331521054000917,3.07365537471264e-07,3.14191414113787e-05
-9.30547769698368e-05,0.000314128417618776,1.85028982345708e-05,1.30002633799359e-05
-7.63416335786363e-05,0.000297260302141923,3.60201305813921e-05,-4.08460132840984e-06
-5.90086018448235e-05,0.000283277051644149,5.28189245933648e-05,-1.82669329462922e-05
-4.45127513714284e-05,0.000273084656780044,6.5849840270523e-05,-2.97398600136307e-05
-4.05788445817735e-05,0.000263166443298247,7.07189819804742e-05,-3.95905003370534e-05
-4.35590769981788e-05,0.000255119815773953,6.75070511218096e-05,-4.80698848267289e-05
-4.8363211653424e-05,0.000249338164886127,6.14081547854283e-05,-5.45282294262377e-05
-5.37514718622846e-05,0.000244748606964863,5.63367577392684e-05,-5.93016739557113e-05
-5.91397320711453e-05,0.000240015997887611,5.11644117533402e-05,-6.43613147694707e-05
-6.57558480355649e-05,0.000233876719109816,4.41760320215442e-05,-7.10011118068285e-05
-7.09652942994412e-05,0.000227260603145397,3.78801958496542e-05,-7.76749582951412e-05
-7.4243549957487e-05,0.000223505510300726,3.58918511864469e-05,-8.13427020801727e-05
-7.23838849296501e-05,0.000225520147414216,3.70229803725927e-05,-8.04358288291482e-05
-7.25507779449688e-05,0.000230145468124477,3.65283115781805e-05,-7.52266681463518e-05
-7.6568131242283e-05,0.000239110007233024,3.27464470825936e-05,-6.5815247765673e-05
-8.09550333592315e-05,0.000254547611150003,2.87497643781487e-05,-5.17822033070972e-05
-8.188486587315e-05,0.000271177308033544,2.69254014918404e-05,-3.44909458112929e-05
-8.42452099469429e-05,0.000286698358458183,2.53238197049251e-05,-1.8144352545658e-05
-8.89778190241944e-05,0.00029892923229511,2.07753211908653e-05,-6.90075460541594e-06
-9.58681163709233e-05,0.000304520148308286,1.30108666805923e-05,-8.5780026839565e-07
-0.000105905539149376,0.000309395808541525,3.94781621836648e-06,4.37955565044995e-06
-0.000115346915444548,0.000317966956971106,-5.12554440473126e-06,1.36973627583956e-05
-0.000123131282516198,0.00033282043533447,-1.37406596941464e-05,2.77685371509574e-05
-0.000130772598431861,0.000346136113770968,-2.10608298216372e-05,4.21097510796004e-05
-0.000137591370200596,0.000354290029662253,-2.64349868043306e-05,5.10358136038128e-05
-0.000140571602617002,0.000356411955142734,-3.02799534478894e-05,5.28878744067974e-05
-0.000142622002519488,0.000353980085490947,-3.28923333187333e-05,5.10424317055671e-05
-0.0001451492396086,0.000350809118199892,-3.33678609014107e-05,4.94272465297352e-05
-0.000142788895534807,0.000350248834505608,-3.13857138902324e-05,4.7974678264191e-05
-0.000140011318922717,0.00034444334175845,-2.91078027045182e-05,4.38379581276006e-05
-0.00014035702588302,0.000336420556093487,-2.91379171704182e-05,3.64877287005368e-05
-0.000144076355938694,0.000329005737841471,-3.09200076921807e-05,2.9305895169949e-05
-0.000143396862947754,0.000324046631100573,-3.1275594374219e-05,2.53799283751612e-05
-0.000140178211938036,0.00032149555215213,-2.86179962511345e-05,2.36938046159097e-05
-0.000138211258543209,0.000317966956971106,-2.4611513401425e-05,2.11095296727382e-05
-0.000135219105197138,0.000313091296737867,-2.11046850192548e-05,1.68710398463323e-05
-0.000129568584535634,0.000308609027183594,-1.72275482490781e-05,1.31240111175445e-05
-0.000124776370810054,0.000305449980822204,-1.06109885705565e-05,1.13877821744373e-05
-0.000115346915444548,0.000303697604161358,-4.46067069791222e-07,1.0516794220497e-05
-0.000103116041607621,0.000301468390313887,1.14935161494545e-05,8.61581905988228e-06
-9.24587304865557e-05,0.000296926516111285,2.2115750301575e-05,5.63000309758652e-06
-8.66532377393983e-05,0.000293779390679561,2.88101574160303e-05,3.2927903973227e-06
-8.55803540694925e-05,0.000292253511682362,3.0900451980565e-05,3.06503361542533e-06
-8.60571912561173e-05,0.000293517130226918,2.99043137447771e-05,4.45450174703332e-06
-8.85248236969008e-05,0.000292527693064671,2.77038542522178e-05,5.0770874380295e-06
-9.30666978995024e-05,0.000288987176953982,2.42759790255043e-05,2.61458998411647e-06
-9.98020231605782e-05,0.000283074395839834,1.82081729824815e-05,-2.63365129200784e-06
-0.000108015543700191,0.000277674214701308,9.5026001861509e-06,-7.42386148975124e-06
-0.000117933757181988,0.000275182740401193,2.33956060820324e-07,-8.68037320290507e-06
-0.00012748242184415,0.000275814549673471,-8.16305927664307e-06,-6.76073149949579e-06
-0.000136101253992394,0.000277853028646292,-1.63746276809225e-05,-4.64411455427503e-06
-0.000143980988501369,0.000277686135630973,-2.46712758790052e-05,-4.09073519430944e-06
-0.000151050099793082,0.000276339070578758,-3.06779867677973e-05,-3.91056851799438e-06
-0.000153553495022863,0.000277864949575958,-3.18959039604718e-05,-2.07374541807443e-06
-0.000150942811426092,0.000281763093576616,-2.95804112008352e-05,1.97430043497418e-06
-0.000149333485921233,0.000286185758482561,-2.77748947414419e-05,7.52587755909545e-06
-0.000151896485799342,0.000291657465199081,-2.85636359818297e-05,1.35961469417806e-05
-0.000153684625249185,0.000296795385884964,-3.02368394322709e-05,1.87663016402876e-05
-0.000154042253139153,0.000298786181139122,-3.03150874719865e-05,2.11995275215645e-05
-0.000153148183414232,0.00029672386030697,-2.85033851512683e-05,1.99401062453761e-05
-0.000151884564869676,0.00029269458607999,-2.60448508439228e-05,1.55983173027002e-05
-0.000149512299866217,0.00028607847011557,-2.36622761342644e-05,9.10016326482016e-06
-0.000147831448783365,0.000276720540328058,-2.10093060354937e-05,6.58716281284969e-07
-0.000145185002397597,0.000267767922149177,-1.72710207580386e-05,-9.2105808915235e-06
-0.000140047081711714,0.000258159652838686,-1.1760349913927e-05,-1.86785221869107e-05
-0.00013390780293392,0.000250709071797673,-4.61680812917094e-06,-2.5884311890647e-05
-0.000127303607899166,0.000246071830157747,2.91023523729557e-06,-3.07649315921452e-05
-0.000121212012840033,0.000243282332615991,9.69147470471962e-06,-3.46175238016348e-05
-0.000115883357279501,0.000239086165373693,1.61350733422474e-05,-3.82957558516535e-05
-0.000109255320385416,0.000236499323636253,2.31989976127949e-05,-4.17573359876629e-05
-0.000104010111332542,0.000233852877250485,3.01479451852269e-05,-4.48984711297652e-05
-9.93609487629502e-05,0.000231373323880036,3.50468062307941e-05,-4.78162733841998e-05
-9.76443348911008e-05,0.000229740156515846,3.77638418791768e-05,-5.05818374446446e-05
-9.65118465728668e-05,0.000226998342692753,4.0412767262023e-05,-5.36182347712994e-05
-9.34720095081335e-05,0.00022357703587872,4.38793807899823e-05,-5.77921008022142e-05
-9.24229676975588e-05,0.000219416631425418,4.59736082808661e-05,-6.29886896797366e-05
-9.49740466460017e-05,0.000217175496648282,4.46707190874809e-05,-6.67775160618163e-05
-9.88125859983316e-05,0.000218498719841166,4.1515227086564e-05,-6.54706002944936e-05
-0.000101721292836743,0.00022817851472965,3.96896596590958e-05,-5.65920547514347e-05
-0.000102686888139658,0.000247061267319993,3.9821018900541e-05,-4.01728468050054e-05
-0.00010300875324063,0.000269043461623398,4.00178095173734e-05,-1.87561975124936e-05
-0.000105071074072783,0.000290608423388506,3.93948362726796e-05,2.81183365289731e-06
-0.000105988985657035,0.000308847445776906,3.8959719110165e-05,1.89139227331267e-05
-0.000107312208849919,0.000318753738329037,3.8914226837135e-05,2.68474691774815e-05
-0.000108885771565781,0.000320899505668849,3.76154413904612e-05,2.91648631353121e-05
-0.000113689906221027,0.000324022789241242,3.41540267369517e-05,3.07476545507808e-05
-0.000118303306001622,0.000328040142538556,3.00599994142859e-05,3.34175347903107e-05
-0.000121998794197964,0.000331413765633927,2.71840921118146e-05,3.49346878530533e-05
-0.00012432337548276,0.000330221672667365,2.51991347069738e-05,3.3284153406528e-05
-0.000128042705538434,0.000327694435578253,2.25462161946961e-05,2.98571376048399e-05
-0.000131857403031433,0.000327134151883969,1.89859497464983e-05,2.7619157662975e-05
-0.000135993965625403,0.000329244156434784,1.56803409405032e-05,2.79772612752897e-05
-0.00013853312364418,0.000332200546991858,1.2734951604952e-05,3.06894289033692e-05
-0.000144994267522947,0.000337243100240415,7.67050897222275e-06,3.52492781966184e-05
-0.000155401239121034,0.000345122834749391,-3.03028705323357e-06,4.04529759169967e-05
-0.000173223028971137,0.000348222276462452,-2.05603395038907e-05,4.34345414011265e-05
