BCL,BCC,BCL_Filtered,BCC_Filtered
-,-,-,-
-0.00096217399610126,0.00206308377165102,-7.7215756015081e-21,-3.74666137901399e-20
-0.000939893778556214,0.00209658158401141,2.44188464034012e-05,3.37336486983268e-05
-0.00091072326366444,0.00211856377831482,5.95178817487901e-05,5.4201923735154e-05
-0.000887417846168151,0.00212193740141019,8.8537317150501e-05,5.74159469717613e-05
-0.000889170222828997,0.00211414111340887,8.47363449723604e-05,4.90925378873561e-05
-0.000935137327619632,0.00210272086278921,4.71317778718673e-05,3.79223959470437e-05
-0.000984478055505637,0.00209532988639652,1.21744008068161e-06,2.95745787678192e-05
-0.00101891762130962,0.00209174168656717,-3.19703272316473e-05,2.50831887850751e-05
-0.00104259258762554,0.00208852303555745,-5.13020603920611e-05,2.20332822807063e-05
-0.00105766064272288,0.00208394539856585,-6.16078525258363e-05,1.72297450995922e-05
-0.00105972296355504,0.00207717431051578,-6.15221539357814e-05,1.0025132803406e-05
-0.00105111605233646,0.00207208407354856,-5.05769820583082e-05,3.37031444471946e-06
-0.00104211575043891,0.00206888926439817,-3.67963100046472e-05,9.12479581651408e-07
-0.00103789574133728,0.00207163107822127,-3.01497708644898e-05,3.7516834658552e-06
-0.00104318863410882,0.00208017838479152,-3.37953660378142e-05,1.07355744702726e-05
-0.00105850702872914,0.00209006083548432,-4.47883020236594e-05,2.00375572525028e-05
-0.00107350355824849,0.00209747565373633,-5.82042804193991e-05,2.85413268235454e-05
-0.00108662850181034,0.00210196984422027,-6.89538795604011e-05,3.19669570090134e-05
-0.00109573609207488,0.00210013402105177,-7.50284134065116e-05,2.92408870229451e-05
-0.00110148198017371,0.00209618819333244,-8.01999468426831e-05,2.53483129575932e-05
-0.00111352211913598,0.00209598553752813,-8.85357253707069e-05,2.53493393972686e-05
-0.00112258202568185,0.00209784520255597,-9.65402233429649e-05,2.62200510754643e-05
-0.00112305886286848,0.00209194434237148,-9.66604772027838e-05,2.02704305623982e-05
-0.00111696726780935,0.00207952273365991,-8.72274091268246e-05,7.41519857326921e-06
-0.00110249525919528,0.00206999791085708,-7.11744514865727e-05,-2.52125915137807e-06
-0.00107666260460988,0.00206910384113215,-4.68896437884349e-05,-2.82048914386676e-06
-0.00104445225265338,0.00207405102694339,-1.18104868393569e-05,9.7652824994901e-07
-0.00101059681240301,0.00207409871066205,2.43328170695601e-05,-2.84769169816584e-08
-0.000989520608754194,0.00206677925984736,4.37508685023021e-05,-5.28826595634343e-06
-0.000990521966846106,0.00206581366454444,4.32565170558431e-05,-7.84921957157675e-06
-0.000995671808461655,0.00206849587371921,3.98356761238489e-05,-6.71912189663033e-06
-0.000992024003983975,0.00206515801341283,4.55356460520651e-05,-7.99531660328722e-06
-0.00098474031595828,0.00205931675787668,4.87093972746283e-05,-1.45958311638177e-05
-0.00100363498947829,0.00205264103726393,3.16490814415453e-05,-2.28290646061031e-05
-0.0010404229784264,0.00204504740506693,-2.44475140794141e-06,-2.99504460558738e-05
-0.00106921202356887,0.00203642857291869,-3.33853298516097e-05,-3.76045455041019e-05
-0.00108103758579717,0.00203007471740691,-4.81431897716431e-05,-4.55669057537074e-05
-0.00108330256243363,0.00202707064313117,-4.66292914073374e-05,-4.89490785121305e-05
-0.00106515890748256,0.00203030121507056,-2.8167300318041e-05,-4.50781776206666e-05
-0.00102148062118772,0.00203785908447856,9.9536847642071e-06,-3.74560105321522e-05
-0.000977003632605292,0.00204715740961775,5.79117389469275e-05,-2.92380756764667e-05
-0.000942778643535295,0.00205869686953407,9.20147890590551e-05,-1.83564398601695e-05
-0.000936126764781878,0.00207189333867391,9.51343141023531e-05,-3.73048493724203e-06
-0.000961494503110319,0.00208504212409509,7.18098705305483e-05,8.80951287456936e-06
-0.000990307390112125,0.00209060919824893,4.08691519644646e-05,1.27225887678094e-05
-0.00101059681240301,0.00208601964032767,1.99757252747368e-05,9.19779299276758e-06
-0.00101466184941899,0.00208003533363553,1.61844423683756e-05,3.34016841277947e-06
-0.00100927358921013,0.00207253706887585,1.99681064349605e-05,-4.81059255675544e-06
-0.0010206223142518,0.00205976975320397,7.64524345888647e-06,-1.80238147541637e-05
-0.00106323963780639,0.00204641831197848,-3.537339187927e-05,-3.20701438693533e-05
-0.00111542946788248,0.0020400644564667,-8.81554985238026e-05,-3.62818197073568e-05
-0.00113322741587325,0.00205276024656059,-0.000106191529987718,-2.55190289285136e-05
-0.00109423405493701,0.00207381260835007,-7.02461144394014e-05,-5.59181298728108e-06
-0.00103509432286586,0.00209209931445714,-1.03417409247316e-05,1.49694743099024e-05
-0.000993514120192177,0.00211125624842979,3.22063179202866e-05,3.28420672566279e-05
-0.00096764570281778,0.00212596667563717,5.37652659457475e-05,4.71813687955205e-05
-0.000942540224941982,0.00213326228459253,7.94077820340179e-05,5.487827652266e-05
-0.000909018570722256,0.00213288081484323,0.000113430300036021,5.35068919003876e-05
-0.000893425994719624,0.00212394011759401,0.000127130229616371,4.57970092199236e-05
-0.000917041356387219,0.00211462987152516,0.000102490697323338,3.63240502200564e-05
-0.000954270419732953,0.00210506928593333,6.44243392739806e-05,2.53536796477903e-05
-0.000965571461055962,0.00209039462151495,5.29755862651544e-05,1.03635126618472e-05
-0.000941467341272076,0.00206987870156042,7.65216153169246e-05,-6.96721348717695e-06
-0.000906252915039832,0.00205934059973601,0.00010979022867235,-1.96393745094844e-05
-0.000885236316039343,0.00205911410207236,0.000130692531811287,-2.22826477303374e-05
-0.000873851828208675,0.00206165326009114,0.000139928828952211,-1.64823392123935e-05
-0.00087299352127275,0.0020689131062575,0.000144133290745779,-8.00935064120612e-06
-0.000873577646826365,0.00207953465458957,0.000138004863775829,-7.65248287032281e-07
-0.000897908264273898,0.00208603156125734,0.000112341747619113,5.11768501703617e-06
-0.000945591982936381,0.0020868779472636,6.97245873191274e-05,1.04192013265342e-05
-0.000988793432044591,0.00209188473772316,2.15751410130836e-05,1.37522997505783e-05
-0.00103334194620502,0.00209209931445714,-2.66901373051871e-05,1.16887376189053e-05
-0.00108981139003106,0.00208127511032075,-7.86058322021559e-05,2.05671110191281e-06
-0.00114346749445602,0.00206378710650129,-0.000135037407472455,-1.25564672075129e-05
-0.00119363076648896,0.00205336821397353,-0.000187341639021229,-2.526124088335e-05
-0.00123115785307633,0.00204911244208291,-0.000225515192067986,-3.02034613828915e-05
-0.00125236518695147,0.00205053103271312,-0.000248298483831151,-2.74156912478994e-05
-0.00126628883280091,0.00205582392548465,-0.000259351132845458,-2.10836586106471e-05
-0.00125640638210811,0.00206395399951661,-0.000254567105267144,-1.34756573192405e-05
-0.00121964223501934,0.00207545769664393,-0.000220821756821956,-3.09780166102851e-06
-0.00115680701475185,0.0020879865937225,-0.000152821892993254,1.08100194197323e-05
-0.00106861597708559,0.0021019936860796,-6.75897628182463e-05,2.54534264549928e-05
-0.000988876878552251,0.00211431992735385,5.99222388864442e-06,3.82325590821235e-05
-0.000945413168991397,0.00212799323368032,5.29300999396537e-05,4.98663194605262e-05
-0.000918877179555725,0.00213614714957161,7.9487084118289e-05,5.99566429445121e-05
-0.000902521664054493,0.00213767302856881,9.23952925253355e-05,6.23318686687816e-05
-0.000909102017229916,0.00212695611279941,8.25781977527777e-05,5.08729138775775e-05
-0.000953590926742013,0.00210556996497929,4.10152659242397e-05,2.94528742177499e-05
-0.00100989347755274,0.00208550704035205,-1.73652129421362e-05,9.53430750230326e-06
-0.0010551930102821,0.00207115424103464,-6.4405760645634e-05,-3.49690656490463e-06
-0.00108249193921637,0.00205938828345467,-9.45936359733747e-05,-1.50004251004854e-05
-0.00112038857462338,0.00204657328406413,-0.00013084853750478,-2.92812641266874e-05
-0.00117384202324402,0.00203473580090617,-0.00018449505652901,-4.04974798991041e-05
-0.00121109492844909,0.0020316721219821,-0.000225688955858476,-4.15115810936817e-05
-0.00119608647800007,0.00203813326586087,-0.000211390952366712,-3.60414946160233e-05
-0.00112060315135736,0.00204133999594092,-0.000134738757359391,-3.33974639979161e-05
-0.00101470953313765,0.002040481689005,-2.86266034938781e-05,-3.41046854349981e-05
-0.00090582376157187,0.00204268706099314,7.45514970855159e-05,-3.02591143033436e-05
-0.000818347979685544,0.00205222380472564,0.00016448600110796,-1.99673648430136e-05
-0.000751817271221713,0.00206354868790798,0.000233169096301184,-1.1992088998336e-05
-0.000717866463534025,0.00206061613921023,0.000260329832610772,-1.34250268640812e-05
-0.00074638132729419,0.00205023300947148,0.000236187247112967,-2.04885510306793e-05
-0.000796568441186454,0.00204787266539768,0.000184816976876509,-2.5347228374158e-05
-0.000832939197596264,0.00204999459087816,0.00014528152120174,-2.5635867335468e-05
-0.000848841717770202,0.00204931509788722,0.000133099848805037,-2.29166567760166e-05
-0.000846839001586378,0.00205295098143524,0.000133799936372741,-1.73401546841523e-05
-0.000848496010809899,0.00206590903198177,0.000130219835795732,-9.1372045708469e-06
-0.000859534791680264,0.0020727278037505,0.00012039397701448,-1.36448472083432e-06
-0.000874006800294328,0.00207486165016065,0.000108175458182233,3.98188518765364e-06
-0.000889563613507963,0.00208212149632701,9.1898671160699e-05,9.60045952166743e-06
-0.000908780152128944,0.00209246886327677,6.94103936273011e-05,1.81659262562294e-05
-0.000937879141442724,0.0021001221001221,4.52350590897417e-05,2.69668915232114e-05
-0.00095958715436382,0.00210356724879546,2.53561706879365e-05,3.18173454130119e-05
-0.00097216373516105,0.00210616601146257,8.96786854597898e-06,3.33849661479326e-05
-0.000992965757427559,0.00210900319272299,-1.00303408303657e-05,3.44795659940268e-05
-0.00102233892812365,0.00210621369518123,-3.58956758564933e-05,3.34594987644054e-05
-0.00105551487538307,0.00209822667230527,-6.76986683229246e-05,2.61798783365959e-05
-0.00108588940417107,0.00208747399374688,-0.000100503317920663,1.34128451771469e-05
-0.00111492878883653,0.00207502854317597,-0.000128293050280974,7.93457635494209e-07
-0.00114004618764199,0.00206389439486828,-0.000147095723237846,-8.33003735088562e-06
-0.00114607817805279,0.00205854189744841,-0.000154361544470464,-1.4830718987384e-05
-0.00113309628564693,0.00205694449287322,-0.00014395132963793,-1.84387369208214e-05
-0.00110275751964793,0.00205631268360094,-0.000107085509916862,-1.58291953645594e-05
-0.00104244953646955,0.00206809056211058,-4.54667575465317e-05,-6.00071029506652e-06
-0.000977039395394289,0.00208067906383747,1.9589958627528e-05,6.08126974222064e-06
-0.000936913546139809,0.00208729517980189,6.102283963964e-05,1.34056711695379e-05
-0.000930237825527061,0.00208626997985065,7.05558964488555e-05,1.27120511267639e-05
-0.000941038187804114,0.00207999957084653,6.28126615894173e-05,5.66171635501287e-06
-0.000947439727034552,0.00207145226427628,5.5385866162825e-05,-3.78921703795418e-06
-0.00095316177327405,0.00206080687408488,5.27948792849505e-05,-1.24908772763209e-05
-0.000957107600993371,0.0020544887813621,4.96942876879302e-05,-1.99454893195262e-05
-0.000970268307344216,0.00204799187469434,3.96627383404538e-05,-2.72038785038419e-05
-0.000993037283005552,0.00204087507968396,1.89712238222413e-05,-3.32439627207596e-05
-0.00101802355158469,0.00204018366576336,-8.22618034257715e-06,-3.40375277462579e-05
-0.00104091173654269,0.00204794419097568,-2.60156229751924e-05,-2.72436264258713e-05
-0.00103673941115972,0.00205780279980915,-1.92379527065075e-05,-1.62971688297412e-05
-0.00100983387290441,0.00206754219934596,5.89405592571059e-06,-7.13216975908566e-06
-0.00099241739466294,0.00207287085490649,2.48678659349133e-05,-1.9134014538542e-06
-0.000998020231605782,0.00207601798033821,2.37975899160237e-05,1.48394589565577e-06
-0.00100784307765025,0.0020792127894886,1.35910520258735e-05,5.29702275736038e-06
-0.00101189619373656,0.0020852805426884,9.0650204031459e-06,1.02312932869913e-05
-0.0010160089144712,0.0020910383517169,7.89040616938565e-06,1.64167810883122e-05
-0.00102467543033811,0.00209624779798077,9.48799265597278e-07,2.24185108084493e-05
-0.00103430754150793,0.00209857237926557,-9.37770402889179e-06,2.47238134690241e-05
-0.0010418773318456,0.00209759486303299,-1.570966495506e-05,2.23828476933396e-05
-0.00104753977343677,0.00209504378408455,-2.03364815813616e-05,2.11580827111804e-05
-0.0010551930102821,0.00210149300703365,-2.74536559713167e-05,2.84598450467084e-05
-0.00105896002405644,0.00211886180155646,-2.91040498044263e-05,4.43301070703201e-05
-0.00104297405737484,0.00213515771240936,-1.71274367738452e-05,6.13964669078618e-05
-0.00103423601592994,0.00214662564674769,-4.0198106140071e-06,7.28078867077738e-05
-0.00104423767591939,0.00214806807923723,-1.27439499333133e-05,7.53207247165205e-05
-0.00107449299541074,0.00213902009362102,-4.77117965386054e-05,6.57382518903495e-05
-0.00112236744894787,0.00211589349006972,-9.42119115921668e-05,4.17223714218872e-05
-0.00117731101377672,0.00208090556150112,-0.000144576318473626,8.23177650467879e-06
-0.00123127706237299,0.00204867136768528,-0.000202414244657718,-2.30066979153449e-05
-0.00128190525066288,0.00203024161042223,-0.00025738867829063,-4.40005256889138e-05
-0.00131051548186037,0.0020153404483402,-0.00027925423390313,-5.65754626574681e-05
-0.00127882965080915,0.00200691235106661,-0.000248596249102107,-6.57846472264588e-05
-0.00120116479403763,0.00199998629093088,-0.000177268806750613,-7.19240417809008e-05
-0.00111392743074461,0.0019997717141969,-8.84381605287419e-05,-7.21938512020884e-05
-0.00102353102109021,0.00200699579757427,6.62220736458842e-06,-6.59328682223222e-05
-0.000924921090896195,0.00201722395522737,9.91823152916204e-05,-5.41155492438383e-05
-0.000853061726871832,0.00203453314510185,0.000168433001768941,-3.66947325094904e-05
-0.000828206588519012,0.00205780279980915,0.000197772319873248,-1.44706826075089e-05
-0.000824439574744676,0.00207957041737857,0.000198466033988884,8.23436712729272e-06
-0.000822269965545533,0.00209759486303299,0.00019816732291092,2.58288194020864e-05
-0.000813329268296317,0.00210556996497929,0.000208226774148436,3.50077133664643e-05
-0.00080109839445939,0.00210590375100993,0.000217121597132049,3.4714014904872e-05
-0.000806665468613235,0.00209797633278229,0.000213124715069213,2.57786290716835e-05
-0.00082192425858523,0.00208345664044956,0.000196683716405859,1.28302393710137e-05
-0.000844895890050881,0.00207263243631318,0.000169398618953808,2.78742895960341e-06
-0.000888693385642373,0.00207016480387239,0.000127377018003526,-2.08136026597206e-06
-0.000942516383082651,0.00206452620414056,7.27453702797453e-05,-6.62897112106672e-06
-0.000993299543458196,0.00205497753947839,2.08681872358408e-05,-1.4932467415859e-05
-0.00102399593734717,0.0020477296142417,-1.31406373362439e-05,-2.32422542743668e-05
-0.00104237801089156,0.00204631102361149,-3.13032271659e-05,-2.5326353034059e-05
-0.00106319195408773,0.00204833758165464,-5.04406394854148e-05,-2.2183835431072e-05
-0.00109367377124272,0.00204948199090254,-8.37974551590224e-05,-2.10179996062716e-05
-0.00113331086238091,0.00204604876315884,-0.00012667718546905,-2.55451467609003e-05
-0.00116782195376289,0.00203825247515753,-0.000159315395851651,-3.19837583399748e-05
-0.00117431886043065,0.00203763258681491,-0.000164443902848893,-3.39888873047669e-05
-0.00114930874999218,0.00204399836325636,-0.000143610588865884,-2.72167310341721e-05
-0.00111927992816448,0.00206029427410926,-0.000114624417650966,-9.80148154583881e-06
-0.00109747654780606,0.00208828461696414,-9.17693765467887e-05,1.63976609419707e-05
-0.00108088261371151,0.00211581004356206,-7.30762041057312e-05,4.39609082542363e-05
-0.00105431086148684,0.00213378680549781,-5.03946826030712e-05,6.33739190893652e-05
-0.00102608210003865,0.00214146388420247,-2.53311143548821e-05,7.01003235925384e-05
-0.0010141373285137,0.00213856709829373,-6.91280497923344e-06,6.6301500934931e-05
-0.00100262171045671,0.00212763560579035,2.73846044366363e-06,5.58205155963957e-05
-0.00099029546918246,0.00211105359262547,1.04140213159176e-05,4.05350635632039e-05
-0.000982892571860109,0.00209442389574193,1.99174676619431e-05,2.17557868212654e-05
-0.000979113637156107,0.0020743252083257,2.71846731309831e-05,1.95228683745228e-06
-0.000974273739711865,0.00205581200455499,2.90781509771477e-05,-1.57101989744213e-05
-0.000971007404983485,0.00204428446556833,3.03002567688776e-05,-2.75277197406282e-05
-0.00096505886108034,0.00204325926561709,3.93635412017662e-05,-2.98326576184551e-05
-0.000943780001627207,0.00204967272577719,6.14739090322632e-05,-2.29319448320382e-05
-0.000908887440495934,0.00205750477656751,9.42457815082525e-05,-1.39749036576811e-05
-0.000878882460527567,0.00206196320426245,0.00012534779383192,-1.13651631730224e-05
-0.000866937689002614,0.00205782664166848,0.000137230552948106,-1.54494969105546e-05
-0.000882864051035884,0.00205333245118454,0.000122587897901718,-1.87935904176887e-05
-0.000911557728741033,0.00205652726033492,9.47219768692371e-05,-1.66393012290674e-05
-0.000929355676731806,0.00206091416245187,7.50832412442751e-05,-1.25138001939089e-05
-0.00093337303002912,0.00206168902288014,7.13474973981854e-05,-1.1567029060536e-05
-0.00093492275088565,0.00205998432993795,7.47789474889587e-05,-1.30514223280774e-05
-0.00093021398366773,0.00206099760895953,7.50076604607087e-05,-1.27874358801193e-05
-0.000941002425015117,0.00206372750185296,6.53836678467393e-05,-9.39020843453154e-06
-0.000972080288653391,0.00207033169688771,3.69542560456827e-05,-3.98027866720526e-06
-0.00102307802576292,0.0020773054407421,-1.52699980728461e-05,3.6845056521212e-06
-0.00108554369721077,0.00208747399374688,-7.67484299923491e-05,1.44566137060558e-05
-0.00112907893234962,0.00210138571866666,-0.000120498757550726,2.6593015395957e-05
-0.00114487416415657,0.00211137545772645,-0.000135685771132766,3.70575225323476e-05
-0.00114412314558763,0.00211806309926886,-0.000134120365588451,4.48586755320022e-05
-0.00113432414140249,0.0021236659362117,-0.000123695829895813,4.94571411244622e-05
-0.00110627419389929,0.00212235463394848,-9.66834741296551e-05,4.72260446203963e-05
-0.0010670185725104,0.00210814488578706,-5.66359681885988e-05,3.44669384248582e-05
-0.00104529863865963,0.00208903563553307,-3.4220162102958e-05,1.44184832366352e-05
-0.00106569534931751,0.00207040322246571,-5.32537996643846e-05,-3.41028133423569e-06
-0.00110557085904901,0.00206213009727777,-9.57907940464762e-05,-1.29935100439364e-05
-0.00113644606688297,0.00205745709284884,-0.000125976165405594,-1.76397006648928e-05
-0.00115041739645108,0.00204968464670686,-0.000136680801643545,-2.37467669212627e-05
-0.00115352875909381,0.0020430804516721,-0.000142808621244938,-3.13313579598841e-05
-0.0011479140012213,0.00204212677729885,-0.000136664178680877,-3.40299386949257e-05
-0.00109937197562289,0.0020469309119541,-8.91775105153722e-05,-2.76289790073782e-05
-0.00101591354703388,0.00205693257194356,-2.53059619189766e-06,-1.57057195389367e-05
-0.000936508234531178,0.00207018864573173,7.52710247690543e-05,-6.3510084132789e-06
-0.000900757366463981,0.00207055819455136,0.000108034121688539,-4.90822860044472e-06
-0.000894546562108192,0.00206295264142469,0.000116323891926558,-1.02885318381543e-05
-0.000872337870141141,0.00205777895794981,0.000140734900781556,-1.70072647557928e-05
-0.000829350997766912,0.00205616963244496,0.000180818407643277,-1.99572749553343e-05
-0.000807809877861135,0.00205637228824927,0.000199320049571462,-1.79818797036287e-05
-0.000834727337046107,0.00206006777644561,0.000175923945145796,-1.41044500916577e-05
-0.000885736995085299,0.00206277382747971,0.000127196420801412,-1.27929530015353e-05
-0.00093021398366773,0.00205802929747279,7.54805870000502e-05,-1.64831147009077e-05
-0.000981545506807894,0.00205134165593038,2.57898093783963e-05,-2.37724479967048e-05
-0.00103021866263262,0.00204446327951332,-1.99211179579081e-05,-3.04005833387392e-05
-0.00105733877762191,0.00204211485636919,-4.79762297921437e-05,-3.21987677639184e-05
-0.00105087763374314,0.00204745543285939,-4.71114649687167e-05,-2.75000037209105e-05
-0.00103430754150793,0.00205860150209674,-2.78328331092106e-05,-1.67773043562121e-05
-0.00102536684425872,0.0020739437385764,-1.56582486529373e-05,-5.98624774526263e-07
-0.00103043323936661,0.00209380400739932,-2.59061883574282e-05,2.01717671804931e-05
-0.00105236774995135,0.00211693061095063,-4.95275457754386e-05,4.10809084295066e-05
-0.00107128626533069,0.00212811244297698,-6.43713886777471e-05,5.33226842675483e-05
-0.00106705433529939,0.00212407124782033,-6.10225819887476e-05,5.02883508968874e-05
-0.0010571361218176,0.00211045754614219,-5.66206450771936e-05,3.56715760284232e-05
-0.00108253962293503,0.00209581864451281,-7.69835700522281e-05,2.1595354358891e-05
-0.00112707621616579,0.00209190857958249,-0.000123288974933156,1.63084423069735e-05
-0.00116753585145091,0.00208992970525799,-0.000166550920458697,1.63338078521023e-05
-0.00118454701808375,0.0020872236542239,-0.000180781826202618,1.4101137829882e-05
-0.00117127902336592,0.00208673489610761,-0.000168347086618264,1.08955317070955e-05
-0.00114082104807025,0.00209102643078723,-0.000141016356869023,1.6051037594452e-05
-0.00109500891536527,0.00210341227670981,-9.19749940511043e-05,3.20496147591506e-05
-0.00101267105416483,0.00212163937816855,-1.01990255858916e-05,4.65137141824845e-05
-0.000914657170454095,0.00211999428987469,8.5264883996809e-05,4.43190685550806e-05
-0.000847005894601696,0.00209714186770569,0.000154042062031941,2.53161782920825e-05
-0.000822591830646505,0.00207804453838137,0.000180280061299024,4.50412950155178e-06
-0.00081568961237011,0.00207003367364607,0.000184709323283699,-5.31191591759144e-06
-0.000815713454229441,0.00206636202730906,0.000185195869161965,-5.86167376072461e-06
-0.000829625179149221,0.00206686270635502,0.000171939363815682,-7.07096365797945e-06
-0.000866556219253315,0.00205969822762598,0.000135064964463429,-1.38104410429502e-05
-0.000910425240422799,0.00204919588859057,9.19277612382499e-05,-2.32876275517437e-05
-0.000935411509001941,0.00204188835870554,6.51301151441848e-05,-3.21698376660405e-05
-0.000951886233799829,0.00203340065678362,4.99517806289804e-05,-3.98707114521453e-05
-0.000977587758158908,0.00202707064313117,2.72236330650214e-05,-4.45509898831414e-05
-0.00100299125927635,0.00203222048474672,-1.89561668116376e-06,-4.17655468752022e-05
-0.00101946598407423,0.00204222214473618,-1.79366326311347e-05,-3.04112454383392e-05
-0.00102115875608675,0.00205597889757031,-1.47379594523908e-05,-1.68707181338476e-05
-0.00101007229149772,0.00206234467401175,-6.27163178247432e-06,-9.55868224325748e-06
-0.00100477939872619,0.00206226122750409,-3.02043810274334e-06,-1.05397026232374e-05
-0.00100939279850678,0.00205800545561346,-2.88380361624089e-06,-1.52414398356461e-05
-0.00101432806338835,0.00205242646052995,-7.11556603473815e-06,-1.91831933814406e-05
-0.00102727419300522,0.00205020916761214,-2.31787216275558e-05,-2.16721360998243e-05
-0.00104960209426892,0.0020499826699485,-4.40282248432716e-05,-2.31981473970295e-05
-0.00105350023826958,0.00204936278160589,-4.39452729266794e-05,-2.26394510729562e-05
-0.00101690298419613,0.00205347550234053,-9.26022247693887e-06,-1.80002214564889e-05
-0.000969493446915951,0.00206499112039752,3.77966803058029e-05,-7.71423858706991e-06
-0.000947809275854187,0.00208079827313413,6.00597742734282e-05,8.97181493884993e-06
-0.000967299995857477,0.00210196984422027,4.54930461448026e-05,3.00369159635371e-05
-0.000994205534112783,0.00212092412238861,1.52203847772161e-05,4.86468731526941e-05
-0.001014518798263,0.00212857735923394,-6.02267994997527e-06,5.68606555923603e-05
-0.00102950340685269,0.00212517989427923,-1.65838992861982e-05,5.33803671803513e-05
-0.00104650265255586,0.00211697829466929,-3.22439710581461e-05,4.44754445543569e-05
-0.00107094055837038,0.00210670245329752,-6.09530030054561e-05,3.49818252354078e-05
-0.00110341317077954,0.00209407818878163,-9.04450982084257e-05,2.21986548804686e-05
-0.00111821896542424,0.00207483780830132,-0.000102381001588709,2.71321205813275e-06
-0.00110728747292086,0.00205421459997979,-9.39375878180377e-05,-1.80808296532582e-05
-0.00109311348754844,0.00204247248425916,-7.83783791748915e-05,-2.94838888554055e-05
-0.00107916599983966,0.00204453480509131,-6.41258305717435e-05,-2.76956426810887e-05
-0.00105870968453346,0.00205403578603481,-4.31087380790437e-05,-1.84216050711388e-05
-0.00102437740709647,0.00206495535760852,-6.69680869626785e-06,-6.75332433145092e-06
-0.000979828892936044,0.00208220494283467,3.50531604869656e-05,8.88023795596723e-06
-0.000954663810411919,0.0021020652116576,6.19095784576592e-05,2.94316165871094e-05
-0.00095152860590986,0.00211859954110381,6.73495048853517e-05,4.74222809167612e-05
-0.000955116805739212,0.00212602628028549,6.10709207327033e-05,5.21369633965138e-05
-0.000968384800457048,0.00211440337386151,4.93522342322293e-05,4.07858344704532e-05
-0.000990235864534131,0.00209196818423082,2.80983586346703e-05,2.00749100175433e-05
-0.00102006203055752,0.00206989062249009,-2.27627871769576e-06,-2.32544817975606e-06
-0.00104888683848899,0.00205180657218734,-3.15328581417355e-05,-2.36396468007719e-05
-0.00107672220925821,0.00202968132672795,-5.6820806314193e-05,-4.3334864647794e-05
-0.00110714442176488,0.00201289665775875,-8.97208805099872e-05,-5.89982548049234e-05
-0.00114967829881181,0.00200717461151925,-0.000132613924948507,-6.74828953954937e-05
-0.00117884881370359,0.00200636398830199,-0.000159584011731803,-6.87139532916749e-05
-0.00115967995880127,0.00200628054179433,-0.000139809205585683,-6.60242455829937e-05
-0.00109322077591543,0.00201324236471905,-7.78061425866072e-05,-6.2046006698736e-05
-0.00103170877884083,0.00201817762960062,-1.41527125045818e-05,-5.50317728899715e-05
-0.00100345617553331,0.00203484308927316,1.67180373370667e-05,-4.05864167044432e-05
-0.000999534189673316,0.00205779087887948,1.79608058651501e-05,-1.77374217126478e-05
-0.000997197687458854,0.00208095324521978,1.74471656804172e-05,7.99421786341154e-06
-0.00098253494397014,0.00210402024412276,3.57648720749511e-05,2.93404444570448e-05
-0.000944328364391825,0.0021221042944255,7.27006361834568e-05,4.40568140995985e-05
-0.000904154831418683,0.00212759984300136,0.000114591832961133,5.41567238848927e-05
-0.000867474130837567,0.00213322652180353,0.000144489921633807,5.92124009748816e-05
-0.000865268758849428,0.00213292849856189,0.000149641112635982,5.530492870303e-05
-0.000892663055221024,0.00211821807135451,0.000129266940059764,4.24515711745853e-05
-0.000915300900656038,0.00210326922555382,9.61612278113981e-05,2.83748701054047e-05
-0.000944221076024835,0.00209637892820709,6.57213661370567e-05,2.0724384684277e-05
-0.000976061879161708,0.00209505570501421,4.34008943765493e-05,1.82952396044486e-05
-0.000989544450613525,0.00209088337963124,2.58429302468297e-05,1.43828847780682e-05
-0.000998151361832104,0.00208301556605193,1.06768975907976e-05,6.96222895795769e-06
-0.0010141730913027,0.00207589877104156,-2.22269594373902e-06,4.26500570803208e-07
-0.00103383070432131,0.00207439673390369,-1.77646124858969e-05,-2.32789173897278e-06
-0.001056373182319,0.00207415831531038,-4.31428434662202e-05,-4.17603047721747e-06
-0.00107923752541766,0.00206645739474639,-7.30922082424834e-05,-8.51737888190764e-06
-0.00109776265011803,0.00206201088798111,-8.57932644260199e-05,-1.37185459276754e-05
-0.00107796198594344,0.00206332219024433,-6.32300500845692e-05,-1.52603708613023e-05
-0.00102202898395234,0.00206587326919277,-1.33322061335693e-05,-1.1139906286741e-05
-0.000968062935356077,0.0020719648642519,3.70739630010991e-05,-3.16641906597659e-06
-0.000941622313357729,0.00208238375677966,7.12547830061521e-05,5.22376355338055e-06
-0.000916409547114941,0.00208834422161247,9.46786554904329e-05,1.03365990568489e-05
-0.000889885478608935,0.00208539975198506,0.000114747097809765,8.88464663428804e-06
-0.000887680106620795,0.00207625639893153,0.000119517731620949,2.94733386912778e-07
-0.000922012384057783,0.00206682694356602,8.93111483458519e-05,-1.08115129897054e-05
-0.000978267251149848,0.00206086647873321,2.801704403051e-05,-1.6030967848664e-05
-0.00103434330429693,0.0020674229900493,-2.99348927667135e-05,-9.21946458250907e-06
-0.00106059319142063,0.0020849705985171,-5.19497924939578e-05,7.49612459858408e-06
-0.00104968554077658,0.00209960950014648,-4.29449597788216e-05,2.38571175948842e-05
-0.00104635960139987,0.00210604680216591,-4.12989001070943e-05,2.89850547767766e-05
-0.00108306414384032,0.00209811938393828,-7.78439879222126e-05,1.97606702553757e-05
-0.00115017897785777,0.00207675707797748,-0.000143470909352202,1.85144999647925e-06
-0.0012056113008029,0.00206056845549157,-0.000200324337904778,-1.65618084765691e-05
-0.00122470863012723,0.00204681170265744,-0.000220964686466755,-3.01933458912658e-05
-0.00121592290496367,0.00204026711227102,-0.000209596635567812,-3.67977870046583e-05
-0.00118967301783997,0.00203980219601406,-0.000185243821597824,-3.65658257441186e-05
-0.00115911967510698,0.00204188835870554,-0.000154523142988949,-3.36412591027692e-05
-0.00111354596099531,0.00204331887026542,-0.000109378867607235,-3.41320496017331e-05
-0.00105180746625706,0.00203965914485807,-4.61515568532128e-05,-3.81105725905676e-05
-0.000978636799969482,0.00203856241932883,2.50022627596363e-05,-3.59085309740714e-05
-0.000914585644876101,0.00205879223697139,9.02303020883959e-05,-1.76557932227197e-05
-0.000863170675228278,0.00209192050051215,0.000141030374067564,1.38766803606684e-05
-0.000835108806795407,0.00212041152241299,0.000170476877414458,4.44216771472113e-05
-0.000831747104629702,0.00213716042859318,0.000171669724328627,6.20482312568681e-05
-0.000857722810371089,0.00214253676787238,0.000147663133471067,6.54601426938413e-05
-0.000889718585593616,0.00213596833562662,0.00011527456944346,5.8980008710891e-05
-0.000915157849500051,0.00212155593166089,8.98415284933778e-05,4.57191181735673e-05
-0.000933897550934407,0.00210411561156008,7.04471595316614e-05,2.82867364357976e-05
-0.000958609638131239,0.00208777201698852,4.79730419056641e-05,1.10227445612419e-05
-0.000982463418392147,0.00207364571533476,2.30347400509391e-05,-2.7611471630639e-06
-0.000998151361832104,0.00206321490187734,6.14141853516058e-06,-1.30836201599253e-05
-0.00100520855219415,0.00205621731616362,2.29938499015871e-06,-1.98964133565695e-05
-0.00100134617098249,0.00205560934875067,5.19012197148091e-06,-2.04640032143164e-05
-0.000999176561783347,0.00206297648328402,6.65017752691479e-06,-1.36467179593987e-05
-0.00100191837560644,0.0020727278037505,3.98251036534697e-06,-4.11648527373884e-06
-0.00101110941237863,0.00207732928260143,-1.90513589402514e-06,1.80719986673253e-06
-0.00101509100288695,0.00207912934298094,-7.5564813497363e-06,2.83018164090895e-06
-0.00101116901702696,0.00207840216627134,-5.83320334242203e-06,1.4986415439019e-06
-0.00100150114306814,0.00207518351526162,8.0566703232659e-06,-1.62416029968676e-06
-0.000982308446306494,0.00206766140864261,2.75721025391595e-05,-7.80278724558022e-06
-0.000968945084151333,0.00206106913453753,3.83491974803469e-05,-1.52700742747612e-05
-0.000976491032629671,0.00205742133005985,3.20022527690215e-05,-2.01338351461053e-05
-0.000998878538541707,0.00205339205583287,1.12810283926517e-05,-2.28153720418543e-05
-0.0010282159464488,0.00204726469798474,-1.69633920501959e-05,-2.84028600391773e-05
-0.0010548473033218,0.00203816902864987,-4.58441483703004e-05,-3.87293969740871e-05
-0.00107475525586338,0.00202864420584704,-6.63174697073026e-05,-4.87156758485562e-05
-0.00108498341351649,0.00202251684799891,-7.12182284060191e-05,-5.33067817524303e-05
-0.00107475525586338,0.00202287447588888,-6.32172934052776e-05,-5.36178059879597e-05
-0.00105781561480854,0.00202481758742437,-4.96246593453692e-05,-5.1848906285371e-05
-0.00104185348998627,0.00203351986608028,-2.82862855997829e-05,-4.35528797679928e-05
-0.00100333696623665,0.00205478680460374,9.55701670322675e-06,-2.15340520679768e-05
-0.000952696857017091,0.00208857071927611,5.86998695157249e-05,1.23568283143165e-05
-0.000916802937793907,0.00212161553630921,9.51431931957418e-05,4.48750952293021e-05
-0.000913751179799508,0.00214056981447755,0.000100034561016505,6.33505062240299e-05
-0.000933849867215745,0.00214256060973171,7.91402824865129e-05,6.687519694032e-05
-0.000962162075171594,0.00214020026565792,5.06415396183831e-05,6.33370032144702e-05
-0.000991714059812668,0.00213463319150407,2.27252624400835e-05,5.83490187729098e-05
-0.00102019316078384,0.00212781441973534,-7.52702152108944e-06,5.09398410080362e-05
-0.00105611092186635,0.00211508286685245,-4.15723521547917e-05,3.91289291905963e-05
-0.00109103924578662,0.00210158837447097,-7.68967162543476e-05,2.54050656893373e-05
-0.00112539536508294,0.00209164631912984,-0.00011068103093433,1.47636074462467e-05
-0.00114923722441418,0.00208468449620512,-0.000135047745786313,9.21748417888769e-06
-0.0011478782384323,0.0020826460172323,-0.000135001321001341,6.30351110808602e-06
-0.00112222439779189,0.00207909358019194,-0.00010404280480652,2.72266225497778e-06
-0.00107128626533069,0.00207362187347542,-5.75445446456604e-05,-1.8405879305853e-06
-0.00103009945333597,0.00207046282711404,-1.70575587675012e-05,-4.8801069273118e-06
-0.00100114351517817,0.00207220328284522,1.55175876129769e-05,-4.5507130159692e-06
-0.000964164791355419,0.00207293045955482,5.29397332184604e-05,-2.47731811785952e-06
-0.000920546109708912,0.00207140458055762,9.30793075959668e-05,-2.66961520652418e-06
-0.00090274816171814,0.00206897271090583,0.000112464962590151,-7.41652581736379e-06
-0.000920486505060584,0.00206120026476385,9.49271442122214e-05,-1.45821660913486e-05
-0.000967085419123496,0.0020544887813621,5.23214587781792e-05,-1.94462565306794e-05
-0.00100431448246923,0.00205521595807171,9.17832457965684e-06,-1.90766289848027e-05
-0.00103529697867018,0.00206167710195047,-2.15188067974263e-05,-1.45005607567532e-05
-0.0010594249403134,0.00206536066921715,-3.95828830982929e-05,-8.92595028229906e-06
-0.00106461054471794,0.00206880581789051,-4.72863982678316e-05,-4.59083629021801e-06
-0.00106405026102366,0.00207296622234382,-5.04472548439721e-05,-1.42719363194216e-06
-0.00107879645102003,0.0020761967942832,-6.23419574623141e-05,1.56549260349492e-06
-0.00111247307732541,0.0020776511477024,-9.29483292118606e-05,3.65975844154256e-06
-0.0011528373451732,0.00207464707342667,-0.000135504767276691,1.60810128314374e-06
-0.00118635899939293,0.0020655514040918,-0.000171315800875681,-6.73797055790661e-06
-0.00120129592426395,0.0020583750044331,-0.000183912620129623,-1.73161969062548e-05
-0.00118091113453574,0.002051854255906,-0.000161472478555454,-2.10847872353616e-05
-0.00111298567730103,0.00205651533940526,-9.41983703058284e-05,-1.34726523012516e-05
-0.00100117927796717,0.00207353842696777,1.44245626287914e-05,-1.04781928868678e-06
-0.000883340888222509,0.00207985651969054,0.000134730452725157,5.47334357466357e-06
-0.000794959115681595,0.0020742536827477,0.000225068624449729,4.49521017971072e-06
-0.000756430671002309,0.00207625639893153,0.000264323022603959,4.72625353301504e-06
-0.000753426596726572,0.00208626997985065,0.00026147436060382,1.20373489834611e-05
-0.000786221074236695,0.00209271920279975,0.000232719270750302,2.10505292224062e-05
-0.000838887741499408,0.00209316027719738,0.000184010866497568,2.3383831701818e-05
-0.00089700227361931,0.00209070456568626,0.000121653424150965,1.90028044567937e-05
-0.00095392471277265,0.00208632958449898,6.33000101548563e-05,1.37034092439281e-05
-0.000995945989843964,0.00207985651969054,2.33792973072812e-05,9.01263254854414e-06
-0.00102682119767792,0.00207088005965233,-3.97517772926398e-06,1.57421211363138e-06
-0.00105397707545621,0.00206203472984044,-3.32196944575085e-05,-9.12455155050006e-06
-0.00107989317654927,0.00205224764658497,-6.45702542967974e-05,-1.96323120675697e-05
-0.00110764510081083,0.00204097044712129,-8.76356782727528e-05,-2.88979856294501e-05
-0.00112882859282664,0.00202984821974326,-0.000102885945010974,-3.8557479202158e-05
-0.00113780505286485,0.00202549708041531,-0.000120197806086843,-4.59829937380534e-05
-0.00114777095006531,0.00202615273154692,-0.000134322523073467,-4.45502920271004e-05
-0.00114669806639541,0.00203477156369517,-0.000121489743956483,-3.34666631490013e-05
-0.00109304196197045,0.00204886210255993,-6.96534046495436e-05,-2.04616378880528e-05
-0.00100889211946083,0.00205937636252501,2.50673207641934e-06,-1.11195931224418e-05
-0.000951945838448157,0.00206686270635502,6.76122429390479e-05,-2.26711603087363e-06
-0.000905942970868526,0.00207761538491341,0.000117681780087139,9.1865169744773e-06
-0.000860083154444882,0.00208657992402195,0.000156568028914602,1.75594860998252e-05
-0.000835955192801666,0.0020853520682664,0.000176326677315644,1.58549685412642e-05
-0.000858962587056314,0.00207532656641761,0.000162357455551446,7.30615663247403e-06
-0.000898027473570554,0.00207028401316905,0.000120058716108073,1.33242100918568e-06
-0.000934565122995682,0.00206903231555416,7.62859053422096e-05,5.08257924104078e-07
-0.000966727791233527,0.00206692231100335,4.92075745409502e-05,-4.19032807353046e-07
-0.000985062181059252,0.00206565869245879,3.22894216257388e-05,-3.67437670964897e-06
-0.000994110166675458,0.00206379902743095,1.54854792603749e-05,-4.49567756838464e-06
-0.00100336080809598,0.00206835282256322,7.33850543838919e-06,1.6726803847225e-06
-0.000993681013207496,0.00208269370095096,2.17880775566619e-05,1.47715046303272e-05
-0.00095776325212498,0.00210261357442221,5.05453417839403e-05,3.30264871232885e-05
-0.000939464625088252,0.00211957705733639,6.46907222888135e-05,5.31197614085219e-05
-0.000967311916787143,0.00213323844273319,4.50283024013727e-05,6.69052647075357e-05
-0.00100771194742393,0.00213551534029933,-5.47822003278501e-07,6.6186228959976e-05
-0.00105394131266721,0.00212135327585657,-5.39402173636567e-05,5.37320716755872e-05
-0.00111566788647579,0.00210812104392773,-0.000111506220039949,4.25887459213036e-05
-0.00118827826906909,0.00210894358807466,-0.000182581055592567,4.06842108789121e-05
-0.00126545436772432,0.00210967076478426,-0.000266536588714582,4.19835153325833e-05
-0.00133891113632388,0.00210294736045285,-0.000342688184161387,3.6454103975469e-05
-0.0013880015246869,0.00208935750063404,-0.00038930003392074,2.24613295992901e-05
-0.00140622862614564,0.0020723463340012,-0.000406958703485601,4.43672839977665e-06
-0.00140492924481209,0.00205063832108011,-0.000413131743799389,-1.57760251113943e-05
-0.00140424975182115,0.00202759516403646,-0.000413108764511487,-3.85685729462699e-05
-0.00138111122734018,0.00200824749518916,-0.000387062492258394,-6.11954718993567e-05
-0.00130245693340641,0.00198624145902642,-0.00031279295078948,-7.87939064537853e-05
-0.00118337876697652,0.00197761070594851,-0.0001939111691131,-8.82001975234368e-05
-0.00103973156450579,0.00198392879867129,-5.60190938124345e-05,-8.61571066623959e-05
-0.000907290035920741,0.0019979001282394,7.9336321284201e-05,-6.81309834781318e-05
-0.000785124348707458,0.00202867996863603,0.000203322490488728,-3.60145278439081e-05
-0.000675642530658396,0.00206485999017119,0.000304327336183231,-4.11345754333745e-06
-0.000617170370648525,0.00207930815692593,0.000362245714242215,1.09697156541728e-05
-0.000615584887002998,0.00207195294332224,0.000368200839137101,6.73936253157462e-06
-0.000643146076389913,0.00206197512519211,0.000339493516469395,-4.84092028840154e-06
-0.000670659582058166,0.0020560504231483,0.000303673402612507,-1.26734287399756e-05
-0.000703239482834308,0.00205249798610794,0.000273542341795846,-1.54833935628809e-05
-0.000735151811549175,0.00205005419552649,0.000247391672612774,-1.57682184692181e-05
-0.000748682066719655,0.00205427420462812,0.000226580448544463,-1.31838545566771e-05
-0.000756609484947293,0.00206228506936342,0.000216975776957813,-7.24614892682042e-06
-0.000764179275284962,0.00206651699939471,0.000212601186181399,-7.3336420041285e-07
-0.000784623669661502,0.00207053435269203,0.00019315456073274,3.62489324420997e-06
-0.000829386760555909,0.00207556498501092,0.000145745791469358,6.50105346986153e-06
-0.000892388873838715,0.00207798493373304,8.12655925449353e-05,9.63481918253881e-06
-0.000954032001139641,0.00208203804981935,2.23108399069574e-05,1.35008595654682e-05
-0.000997269213036848,0.00208771241234019,-1.93046625978035e-05,1.90692712909509e-05
-0.00102229124440499,0.0020959616956688,-4.61754403760905e-05,2.79491797124012e-05
-0.00103816992271959,0.00210838330438038,-6.21540978318136e-05,3.837140198914e-05
-0.00104449993637204,0.0021142007180572,-6.65334274081703e-05,4.45049738813145e-05
-0.00104271179692219,0.00211079133217283,-6.22292260817136e-05,4.23879862096452e-05
-0.00104062563423071,0.00210340035578015,-6.04095024071362e-05,3.39489904168586e-05
-0.00104987627565123,0.00209451926317926,-7.03025251065413e-05,2.36140505469857e-05
-0.00106849676778893,0.00208472025899412,-8.6952619009633e-05,1.42878613957884e-05
-0.00108211046946707,0.00207709086400812,-9.4867512725223e-05,8.14639185805266e-06
-0.00107011801422346,0.00207771075235073,-8.52949251696833e-05,6.92175936858747e-06
-0.00105094915932114,0.00208053601268148,-6.68038413909783e-05,8.57614061050912e-06
-0.00104650265255586,0.00207828295697468,-5.56672768477496e-05,7.72204753845521e-06
-0.00104939943846461,0.00207321656186679,-5.62659706933442e-05,2.58096869645098e-06
-0.00104501253634766,0.00206913960392115,-5.47214876597929e-05,-2.28316412572462e-06
-0.0010293245929077,0.00206918728763981,-3.47187250497264e-05,-3.48256067596591e-06
-0.000996601640975573,0.00206748259469763,2.21570171575445e-06,-4.60334774650021e-06
-0.000962972698388856,0.00206089032059254,3.64813114851767e-05,-9.86666777141799e-06
-0.00095008617342032,0.00205637228824927,5.0871348262976e-05,-1.62155548574103e-05
-0.00095746522888334,0.0020564318928976,4.67132864360315e-05,-1.78681429784985e-05
-0.000969755707368595,0.00205614579058562,3.67234498894936e-05,-1.57994050063831e-05
-0.00098406082296734,0.00205545437666502,2.57963327243731e-05,-1.5897934586454e-05
-0.00100591188704442,0.00205543053480569,5.31014670940114e-06,-1.96399557992445e-05
-0.00104566818747927,0.00204966080484753,-3.25378508661254e-05,-2.40734373056642e-05
-0.00109570032928588,0.00204219830287685,-7.93141989362773e-05,-3.01537931717073e-05
-0.00113344199260724,0.00203108799642849,-0.000112875143979625,-4.22453258606753e-05
-0.00113621956921933,0.00201805842030397,-0.000115562232884599,-5.73595715050376e-05
-0.00111230618431009,0.0020104528671773,-8.99370489913137e-05,-6.31927459420025e-05
-0.00108435160424421,0.00202176582942997,-5.7108427729207e-05,-5.1633928794309e-05
-0.00106827027012529,0.00204609644687751,-3.8222566592573e-05,-2.85878107199267e-05
-0.00106450325635095,0.00206917536671015,-3.52100407390721e-05,-5.64928526838903e-06
-0.00106180912624652,0.0020875693611842,-3.0074700828276e-05,1.29398102014688e-05
-0.00104300982016384,0.00210331690927249,-5.17325550668691e-06,2.92913877177599e-05
-0.00100028520824225,0.00211708558303628,3.69225025630537e-05,4.21369873464091e-05
-0.000960385856651417,0.00212154401073122,7.65016859403391e-05,4.62216634687001e-05
-0.000945055541101428,0.00211577428077306,9.73067632270363e-05,4.12143446599557e-05
-0.000946009215474678,0.00210948002990961,9.81185995745695e-05,3.44279817192739e-05
-0.000959026870669536,0.00210717929048415,8.45820494775326e-05,3.2485826655827e-05
-0.000985574781034874,0.00211024296940821,5.88332302331605e-05,3.46520981905005e-05
-0.00102772718833251,0.00211170924375708,2.23904097018502e-05,3.66548950409613e-05
-0.00106568342838785,0.00211216223908438,-1.73737148126547e-05,3.73228234906969e-05
-0.00109921700353724,0.00211325896461361,-5.12007580369063e-05,3.79948565146717e-05
-0.00112779147194573,0.00211273444370833,-7.53050915549304e-05,3.76087108706474e-05
-0.0011413932526942,0.00210838330438038,-8.91241838924412e-05,3.2676453552072e-05
-0.00114189393174016,0.00209696305376071,-9.0274153775654e-05,2.24283619057844e-05
-0.00113247639730432,0.00208590043103101,-7.98018298035675e-05,1.06615098687103e-05
-0.00112313038844647,0.00207649481752484,-6.87022290878483e-05,8.61190851571943e-07
-0.00112314230937614,0.00206668389241003,-6.7954893558165e-05,-8.04216308757858e-06
-0.00112298733729049,0.00205758822307516,-7.16005822136897e-05,-1.81764938731635e-05
-0.00111540562602315,0.00204782498167902,-6.05178861266005e-05,-2.63750926428966e-05
-0.00108276612059868,0.00204974425135519,-2.64701566365189e-05,-2.5848482516972e-05
-0.00103540426703717,0.00205994856714896,1.65722792912856e-05,-1.5836398264173e-05
-0.00100283628719069,0.00206855547836754,4.94110739406203e-05,-5.80714817219704e-06
-0.000987482129781373,0.0020682574551259,6.76340372739971e-05,-6.21824044724419e-06
-0.000973355828127612,0.00205972206948531,7.91963349542524e-05,-1.67721996856452e-05
-0.000960362014792086,0.00204679978172778,8.97843964717713e-05,-2.76948547941675e-05
-0.000952208098900801,0.00204297316330511,9.8419613333837e-05,-3.16010706506492e-05
-0.000948298033970477,0.00204595339572152,0.000103020481359245,-2.94438300794573e-05
-0.000946295317786653,0.00205051911178345,0.000103023736593958,-2.46758157583476e-05
-0.000946533736379965,0.00205777895794981,9.86288814160842e-05,-1.72767369384346e-05
-0.000956368503354103,0.00206826937605556,9.16378651463702e-05,-6.62583276638604e-06
-0.000962400493764907,0.00207846177091967,8.35458839764688e-05,3.59625890326298e-06
-0.000972878990940987,0.00208297980326294,7.03614591311111e-05,7.56200751526682e-06
-0.000994825422455395,0.00207822335232635,4.66914256433523e-05,3.15597480733653e-06
-0.00102242237463131,0.00206896078997617,1.91524396997988e-05,-6.63346572870646e-06
-0.00103594070887212,0.00205706370216988,4.50297861087813e-06,-1.67089983033379e-05
-0.00103213793230879,0.00205360663256685,4.3138887615001e-06,-2.25225114426023e-05
-0.00104384428524043,0.00205415499533147,-7.24577408655166e-06,-2.1949026195719e-05
-0.00108729607387162,0.00205734980448185,-5.28649859016466e-05,-1.67888197856799e-05
-0.00114845044305625,0.00206401360416493,-0.000114852139657801,-1.04788279914885e-05
-0.00118038661363045,0.00207464707342667,-0.00014906385114814,-2.52625953539947e-06
-0.00116568810735274,0.0020871521286459,-0.000137510237264062,1.15479479456554e-05
-0.0011368871412806,0.00210505736500367,-0.000107687549764495,3.15460413929066e-05
-0.00112153298387128,0.00212374938271936,-9.45576591611524e-05,4.74192540817092e-05
-0.00112630135573753,0.00212485802917826,-0.000103388201339124,4.82274958157986e-05
-0.00114495761066423,0.00211023104847855,-0.000120557720733116,3.48062367579508e-05
-0.00116126544244679,0.00209225428654279,-0.000140568513754046,1.794927906752e-05
-0.00118319995303154,0.00208063138011881,-0.00016201261118672,4.46722360163007e-06
-0.0011862636319556,0.00206904423648383,-0.000169127840870935,-8.72016947582165e-06
-0.00115952498671561,0.00204895746999725,-0.000142095653710827,-2.51743019351023e-05
-0.00110172039876702,0.00203536761017845,-8.48416651510129e-05,-3.97917962885609e-05
-0.00103495127170988,0.0020340324660559,-2.32730807837691e-05,-4.35132061796743e-05
-0.000989425241316869,0.00204144728430791,2.63695033288444e-05,-3.43918642434135e-05
-0.000940084513430864,0.00205545437666502,7.07156364872862e-05,-1.99210563537277e-05
-0.000892114692456406,0.00206646931567605,0.000116993106249174,-8.89851549639771e-06
-0.000857138684817474,0.00207419407809937,0.000154277308874879,-3.32743883819323e-06
-0.000842249443665114,0.00207711470586745,0.000166484015501468,1.7287657500463e-06
-0.000853371671043138,0.00208691371005259,0.000153047919316713,1.15201314562561e-05
-0.000878286414044286,0.00210144532331498,0.000127098943819654,2.49398773251382e-05
-0.000907981449841347,0.00211046946707186,0.000101092354875089,3.45225088793315e-05
-0.00092090373759888,0.00210932505782396,8.32007361952337e-05,3.37712028197376e-05
-0.000921487863152496,0.00209972870944313,8.04112414555118e-05,2.39252966452602e-05
-0.000912237221731974,0.00208824885417514,9.32066576190193e-05,1.20934628203358e-05
-0.000896036678316395,0.00207840216627134,0.000109162204608764,3.66461171741653e-06
-0.00088902717167301,0.00207471859900466,0.000111426188361543,-9.65576388604809e-07
-0.000906562859211138,0.00207327616651512,9.45302252550829e-05,-3.06239705677535e-06
-0.00093712812287379,0.002070891980582,6.69721133840551e-05,-3.12989004344735e-06
-0.000962388572835241,0.00207184565495525,4.02580336318665e-05,-2.85975047483524e-06
-0.00097706323725362,0.00207034361781738,2.14588760940911e-05,-5.52165579529301e-06
-0.000986623822845448,0.00206315529722901,1.42765922960901e-05,-1.16100398451254e-05
-0.000984418450857308,0.00205694449287322,1.89467699460296e-05,-1.63827639314368e-05
-0.00097167497704476,0.00205932867880635,2.92451187335406e-05,-1.45942343730897e-05
-0.000962126312382597,0.00206886542253884,3.51524644362941e-05,-6.6752917454607e-06
-0.000970947800335157,0.00207511198968363,3.08108260208361e-05,1.84493758932436e-06
-0.000986027776362167,0.00207800877559237,1.73580000361636e-05,6.26411868547467e-06
-0.000999081194346022,0.00208045256617383,-1.1396589823676e-06,6.31284897401644e-06
-0.00101869112364597,0.00207844984999,-2.00320406303191e-05,4.47309886811402e-06
-0.00103621489025443,0.00207365763626442,-3.31445906605796e-05,2.49947115173385e-06
-0.00103654867628507,0.00207166684101026,-3.57590291676252e-05,1.36705550298025e-07
-0.00102868086270576,0.00207002175271641,-3.05036128860498e-05,-2.9823959917491e-06
-0.00102552181634437,0.0020674229900493,-2.58654966642929e-05,-4.54407013285158e-06
-0.00103005176961731,0.0020697475713341,-2.6823174418394e-05,-1.58119100563319e-07
-0.00102912193710339,0.00208208573353802,-3.03435894399361e-05,1.15072041364625e-05
-0.00102996832310965,0.00209705842119804,-3.14723982302889e-05,2.51722083286911e-05
-0.0010316849369815,0.00210276854650787,-3.01255073948428e-05,3.33079206476195e-05
-0.00103042131843694,0.00210326922555382,-3.0030137039695e-05,3.39993706077517e-05
-0.00103267437414374,0.00210104001170635,-3.42128543830587e-05,3.16416387301884e-05
-0.00104289061086718,0.00209989560245845,-4.33905599577523e-05,2.98777942848135e-05
-0.00105628973581134,0.00209567559335682,-5.60819258180212e-05,2.76583953218108e-05
-0.001067709986431,0.00209087145870158,-6.90250678330781e-05,2.31089982321162e-05
-0.00107882029287936,0.00208584082638269,-8.05164911705206e-05,1.66094911139242e-05
-0.00109343535264941,0.00207436097111469,-9.4418225192119e-05,7.34911203246811e-06
-0.00111474997489154,0.00205866110674507,-0.000117005834075931,-8.70566138567672e-06
-0.00114513642460921,0.00203485501020283,-0.000147572163493088,-3.23729769703463e-05
-0.0011726380093478,0.00201224100662714,-0.000174954541787248,-5.47732423020156e-05
-0.00118135220893337,0.00200382483028321,-0.000185119687714923,-6.25887151053624e-05
-0.00116564042363408,0.0020150305041689,-0.000169866926453291,-5.07210433659811e-05
-0.00112526423485662,0.00203976643322506,-0.000128573200749528,-2.72537428484024e-05
-0.00106247669830779,0.00205985319971163,-6.77460604405257e-05,-5.84312525188324e-06
-0.000994527399213755,0.00206966412482644,-2.04452741666025e-06,4.90197574682897e-06
-0.000946450289872306,0.00207169068286959,5.00968846514413e-05,5.47892342868175e-06
-0.000913405472839205,0.00206801903653258,7.80061785223463e-05,2.1249813584786e-06
-0.00090707545918676,0.00206447852042189,8.44926790933804e-05,6.07650968783105e-09
-0.000914442593720114,0.00206327450652567,7.81475533515069e-05,-1.74396833692676e-06
-0.000925290639715829,0.0020575405393565,6.53419465267584e-05,-7.84448726477662e-06
-0.000935435350861272,0.00204739582821106,5.41171175767586e-05,-1.85605219732582e-05
-0.000929880197637093,0.00203837168445418,5.81806643377994e-05,-2.56314016119116e-05
-0.000905013138354608,0.00204415333534201,8.52727828077309e-05,-2.00829779867383e-05
-0.000864005140304872,0.00206358445069697,0.000122290278914946,-3.59637593861929e-06
-0.000843298485475688,0.00207681668262581,0.000143035344093181,1.19775794520902e-05
-0.000850844433954026,0.00208086979871212,0.000134906491010369,1.75706563896175e-05
-0.000875377707205874,0.00208280098931795,0.00011097565489024,1.59179360437246e-05
-0.000891518645973125,0.002082300310272,9.15870056533072e-05,1.55257057499988e-05
-0.000902438217546834,0.00208215725911601,8.03702228760121e-05,1.85309392722979e-05
-0.00091927057023469,0.0020848633101501,6.44845673743568e-05,1.84360382904986e-05
-0.000948607978141783,0.00207685244541481,3.41926668370591e-05,9.60279733761561e-06
-0.000985372125230558,0.00206153405079449,-5.95531144574578e-06,-4.66833500716932e-06
-0.00102605825817932,0.00204989922344084,-4.51756957524115e-05,-1.57305300764974e-05
-0.00105967527983637,0.00204861176303695,-7.75062423931341e-05,-1.95758873240595e-05
-0.00107810503709942,0.00204764616773404,-9.96523224557598e-05,-1.99791188547229e-05
-0.00107948786494064,0.0020457865027062,-0.000102278803805841,-2.10663350762214e-05
-0.00105472809402514,0.00204840910723264,-7.33283599536217e-05,-2.02015390683474e-05
-0.000993812143433818,0.00205689680915456,-1.53212445393359e-05,-1.18923591859211e-05
-0.00092964177904378,0.00207157147357294,4.54651184220972e-05,2.48398017926504e-06
-0.000903594547724399,0.00208212149632701,7.63552908487681e-05,1.37078802529614e-05
-0.000910830552031431,0.00208587658917168,6.76762256144252e-05,1.50511409217355e-05
-0.000935363825283278,0.00208060753825948,4.012073700296e-05,9.81336818622912e-06
-0.000957179126571365,0.00207526696176928,2.11074307928525e-05,5.92138516563379e-06
-0.000958728847427895,0.00207791340815505,1.97407036681416e-05,6.24517761552603e-06
-0.000949490126937039,0.00208135855682841,2.76531219041756e-05,8.02032801357384e-06
-0.000942635592379307,0.00208011878014319,3.51916655672976e-05,9.34017247581139e-06
-0.000941205080819433,0.00208313477534859,3.73773051093813e-05,1.09297445325409e-05
-0.000949466285077708,0.00208694947284159,2.95104886175445e-05,1.19017135560594e-05
-0.000969553051564279,0.00208277714745862,9.42721443714698e-06,9.1828674972824e-06
-0.000995183050345364,0.00207560074779992,-1.56555500625818e-05,2.89509431807256e-06
-0.00101485258429364,0.00207412255252138,-3.45199631282598e-05,-1.91339745256462e-06
-0.00102751261159853,0.00207427752460703,-4.54432338326806e-05,-1.71408178099182e-06
-0.00103595262980179,0.00207514775247262,-5.56534568105142e-05,1.54292398645332e-07
-0.00105016237796321,0.00207343113860077,-6.68499879694939e-05,-2.35373235135993e-06
-0.001056301656741,0.00206782830165793,-7.19460416302241e-05,-1.03010771496419e-05
-0.00105223661972503,0.00205804121840246,-6.88169790531985e-05,-1.93044333222051e-05
-0.00105128294535178,0.00205131781407105,-6.56971552787189e-05,-2.54254990581369e-05
-0.00105465656844715,0.00205094826525141,-6.71992383065309e-05,-2.77891436565757e-05
-0.00105347639641025,0.00205395233952715,-6.58216409311826e-05,-2.54536706892362e-05
-0.00104398733639642,0.00206295264142469,-5.57514421848022e-05,-1.60752652706681e-05
-0.00103563076470082,0.00207859290114599,-4.57376143718711e-05,-2.11241922244425e-07
-0.00104053026679339,0.00209587824916114,-4.6954298048238e-05,1.58244827724225e-05
-0.00104453569916103,0.00210758460209278,-5.35651362291502e-05,2.52060653480289e-05
-0.0010399699830991,0.00210719121141381,-4.67159490253609e-05,2.81448050731517e-05
-0.00101305252391413,0.00211117280192213,-1.60766959403468e-05,3.08702821542111e-05
-0.000966680107514865,0.00212047112706131,3.05718561509476e-05,3.68649962807393e-05
-0.000920069272522287,0.00212473881988161,7.63415974334164e-05,4.27114511602692e-05
-0.000892174297104734,0.00212389243387535,0.000106204550539594,4.3965439633209e-05
-0.000890862994841516,0.00212396395945334,0.000113117184508597,4.11639681523305e-05
-0.000898456627038516,0.00212186587583219,0.000103010009965222,3.67400839627578e-05
-0.00090802913356001,0.00211102975076614,9.17849298753542e-05,2.92724333148452e-05
-0.000918817574907397,0.00209670079330807,8.85850738642943e-05,1.58435723801553e-05
-0.000923407132828661,0.0020837546636912,8.38323195373462e-05,-1.47335176694541e-06
-0.000943481978385566,0.00206875813417185,6.18277504488017e-05,-1.71500936586993e-05
-0.000984597264802293,0.00205037606062746,2.1796511142329e-05,-2.99808069670695e-05
-0.0010342836996486,0.00203967106578774,-2.26694525006062e-05,-4.31740013451591e-05
-0.00107229954435227,0.00203232777311371,-5.9467443784301e-05,-5.55717077232725e-05
-0.00108618742741271,0.00202360165259848,-7.96162863007523e-05,-5.97399957984874e-05
-0.00108125216253115,0.00202845347097239,-6.82754552985724e-05,-5.26143178936658e-05
-0.00103224522067578,0.00204354536792906,-1.55179041214155e-05,-4.20282347202746e-05
-0.000953316745359703,0.00205039990248679,5.93835885390373e-05,-3.67260930838887e-05
-0.00089727645500162,0.00204794419097568,0.000113853567438333,-3.39815106206096e-05
-0.000895142608591473,0.00205849421372975,0.000123113041900188,-2.42487142576763e-05
-0.000915229375078045,0.00208047640803316,0.000102367840647666,-6.44318495911552e-06
-0.00093318229515447,0.00209345830043902,7.92424922922509e-05,8.5803042246542e-06
-0.000957977828858961,0.00209292185860406,5.95623123301475e-05,1.07791152517305e-05
-0.000984573422942962,0.00208634150542864,3.42203758331279e-05,1.96047969640178e-06
-0.00100957161245177,0.00207852137556799,5.47277579667045e-06,-7.56249472597072e-06
-0.00103249556019876,0.00207355034789743,-1.49861564777511e-05,-9.73135010627244e-06
-0.00104606157815823,0.00207892668717663,-2.8615900198827e-05,-4.55640022047957e-06
-0.0010658384004735,0.00208698523563059,-4.97597580956006e-05,2.50811467520357e-06
-0.00109897858494393,0.00209203970980881,-8.1643592725739e-05,7.7406908165777e-06
-0.00112625367201887,0.00209776175604831,-0.000109794137802641,1.41476794384026e-05
-0.00113829381098114,0.00211172116468675,-0.000123171186883447,2.79119056161992e-05
-0.00114307410377706,0.00213204634976663,-0.000126975390613263,4.86669700867724e-05
-0.0011425734247311,0.0021502257675067,-0.000128155743420803,6.65708974548076e-05
-0.00113563544366571,0.00215667499045581,-0.000120633290185275,7.2508833234562e-05
-0.00110676295201558,0.00215076220934166,-9.41214304634787e-05,6.81089071730026e-05
-0.00106343037268104,0.0021437765445576,-5.07140887149972e-05,6.09711464188273e-05
-0.00101736790045308,0.00213757766113148,-5.67044207423855e-06,5.33372542719713e-05
-0.000988543092521613,0.00212483418731893,2.3587343455829e-05,4.23040364762361e-05
-0.000982260762587831,0.00211125624842979,2.58119463629715e-05,2.87940243842395e-05
-0.00100717550558898,0.00210096848612836,1.61603170646511e-06,1.73633083479126e-05
-0.00104161507139296,0.00208916676575939,-3.21450205356295e-05,7.19975586893509e-06
-0.00105526453586009,0.0020757795617449,-5.04122369790295e-05,-7.11827361957846e-06
-0.00104751593157744,0.00205914986486136,-4.18441996624246e-05,-2.38528419395531e-05
-0.00102542644890704,0.00204874289326327,-2.06651009182543e-05,-3.28020834939863e-05
-0.00101228958441553,0.00205228340937396,-1.03420183671969e-05,-3.02363560371972e-05
-0.00102131372817241,0.00205597889757031,-1.87193771586069e-05,-2.66008292099398e-05
-0.00103751427158798,0.00204892170720826,-3.65493014182103e-05,-3.34598089951133e-05
-0.00105423933590885,0.00203151714989645,-5.66636750185366e-05,-5.00075378554263e-05
-0.00108087069278185,0.00201276552753243,-8.21715331236283e-05,-6.84852949884174e-05
-0.00111110217041386,0.0019990087746983,-0.000112262195478826,-8.49351646127263e-05
-0.00112414366746805,0.00198514473349719,-0.000129932013408618,-9.6220250948144e-05
-0.00110603577530597,0.00198588383113645,-0.000113066795984291,-9.38510438161765e-05
-0.00105277306155998,0.00201152575084721,-5.64280269519012e-05,-7.25644631751317e-05
-0.000971460400310779,0.00204026711227102,2.20727393543159e-05,-4.15917013928359e-05
-0.000891852432003762,0.00206451428321089,9.59559588981546e-05,-1.60720711500071e-05
-0.000844800522613556,0.00208271754281029,0.000147615957445875,1.15179860844295e-06
-0.000818741370364509,0.00210094464426903,0.00017362323243727,1.83208260166526e-05
-0.000807106543010863,0.0021187783550488,0.000179848740621419,3.65767011834394e-05
-0.000813019324125011,0.00212621701516014,0.000174988152660503,4.5903196030319e-05
-0.000823986579417382,0.00212346328040739,0.000165589104500573,4.17969813172969e-05
-0.000835287620740391,0.00211699021559895,0.000152393509449026,3.38958556931295e-05
-0.000856077722077234,0.00211361659250358,0.000130793202237503,3.22356405293562e-05
-0.000888466887978726,0.00211499942034479,9.77449132797286e-05,3.44136912078788e-05
-0.000927996690749925,0.00211528552265677,5.94827719280993e-05,3.30940381967054e-05
-0.000957989749788627,0.00211126816935946,2.98517624767808e-05,2.82771822142641e-05
-0.000967574177239786,0.00210522425801899,1.82972750755937e-05,2.43601759320315e-05
-0.000965666828493287,0.00210233939303991,2.04225972563166e-05,2.1158344509905e-05
-0.000965857563367937,0.00209890616529621,2.30357621455863e-05,1.6087849804821e-05
-0.00097033983292221,0.00209302914697106,1.79499782098207e-05,1.09344495296715e-05
-0.000978708325547476,0.00208990586339866,7.33593941991058e-06,8.49467561644871e-06
-0.000994455873635761,0.00208771241234019,-4.63971971620985e-06,5.91413775994792e-06
-0.00101025110544271,0.00208189499866337,-1.95576290498699e-05,-4.97601408296772e-07
-0.00102889543943974,0.00207592261290089,-3.92682783720108e-05,-6.39166758478839e-06
-0.00104593044793191,0.00207794917094404,-5.62479995215686e-05,-4.08187206933567e-06
-0.00105233198716235,0.00208641303100664,-5.72935030727527e-05,4.87147395321438e-06
-0.0010308504719049,0.00209314835626771,-3.82517696799513e-05,1.06082910699298e-05
-0.00100201374304376,0.00209221852375379,-9.20854019216486e-06,9.09365419230023e-06
-0.000981056748691603,0.00208820117045648,1.69011486590383e-05,6.67383550462808e-06
-0.000963175354193172,0.00209032309593696,3.41358765979962e-05,8.33665381399988e-06
-0.000958311614889599,0.0020925642307141,3.85861845001929e-05,9.74138786457898e-06
-0.000978028832556536,0.00208880913786943,2.30539005121587e-05,5.24903232200819e-06
-0.00101488834708264,0.00207833064069334,-1.27426844404176e-05,-3.03954665278135e-06
-0.00105463272658782,0.00207173836658826,-5.21093410488898e-05,-1.0029351786994e-05
-0.00108040577652489,0.00206829321791489,-7.57506296795285e-05,-1.61668485811343e-05
-0.00109190947365221,0.00205855381837808,-8.58799026338507e-05,-2.43613525431784e-05
-0.00111018425882961,0.0020492197304499,-0.000100556880286393,-3.14210830906772e-05
-0.00112832791378068,0.00205394041859748,-0.000120177460172882,-2.99335204710901e-05
-0.00112869746260032,0.00206557524595113,-0.000117643319633375,-1.85698351952263e-05
-0.00108882195286882,0.00207721007330478,-7.46004996271275e-05,-4.71075525625465e-06
-0.00102716690463822,0.00208640111007697,-1.31311135846651e-05,4.20949671432378e-06
-0.000988054334405323,0.00209195626330115,2.77115753175871e-05,7.49134133722734e-06
-0.000978350697657508,0.00209114564008389,3.92493637791896e-05,8.14354421895522e-06
-0.000974261818782199,0.00209057343545994,4.57778667548476e-05,7.50565411481093e-06
-0.000958216247452274,0.00208864224485411,6.23684004133396e-05,5.57397309100149e-06
-0.000946152266630665,0.00208704484027891,7.44276746098509e-05,3.73668624778742e-06
-0.000959169921825523,0.00208843958904979,6.60618016399961e-05,3.75608296770736e-06
-0.00097763544187757,0.00208777201698852,4.68877417145498e-05,4.83947709813507e-06
-0.000988328515787632,0.00208711636585691,3.59467515446264e-05,4.23592386526966e-06
-0.000994539320143421,0.0020856620124377,3.3789853686014e-05,9.45538672789973e-07
-0.00100070244078055,0.00208185923587437,2.78163628796408e-05,-2.50008869223923e-06
-0.00101037031473937,0.0020811201382351,1.67930874675591e-05,-2.24658847065389e-06
-0.00101814276088135,0.00208699715656025,1.25503206957554e-05,3.32901389381273e-06
-0.00101082331006666,0.00209660542587074,1.98056262219644e-05,1.19698754555062e-05
-0.00100206142676243,0.00210444939759072,2.86700446915494e-05,1.89832183247985e-05
-0.0010039091708606,0.00210396063947443,2.75921204040913e-05,2.07306178492788e-05
-0.00101823812831867,0.00210131419308866,1.3039808133841e-05,1.71673588522082e-05
-0.00104712254089847,0.00209643853285542,-1.37423380570501e-05,1.07372725343876e-05
-0.00108149058112446,0.00208854687741678,-4.96512590544398e-05,2.97013941832881e-06
-0.00111984021185876,0.00207684052448514,-8.78104642078876e-05,-6.6351449706136e-06
-0.00115168101499564,0.00206695807379234,-0.000119578823677924,-1.79719366945482e-05
-0.00117120749778792,0.00205842268815176,-0.000138589636288029,-2.82108927703182e-05
-0.0011710763675616,0.00205152046987536,-0.000137943961306157,-3.39058335362285e-05
-0.00113751895055288,0.00204966080484753,-0.000108151808730574,-3.45354546306711e-05
-0.00107843882313006,0.00205298674422423,-4.83319072653109e-05,-3.24750369949974e-05
-0.00101296907740647,0.00205780279980915,2.18229459807224e-05,-2.98846388531396e-05
-0.00095536714526219,0.00205820811141778,7.19954879542397e-05,-2.71556401077507e-05
-0.000941741522654386,0.00205998432993795,8.51797458759045e-05,-2.41031892793558e-05
-0.000964319763441072,0.00206688654821435,6.59595516894589e-05,-2.0754707311836e-05
-0.00100057131055422,0.00207061779919969,2.90643275265332e-05,-1.66446051873937e-05
-0.00103284126715906,0.00207393181764673,-8.84192858814544e-06,-1.10848512298169e-05
-0.00105235582902168,0.00208107245451644,-2.91095643982045e-05,-4.65602504296944e-06
-0.00104780203388941,0.0020894767099307,-2.06036486280661e-05,1.36429762744564e-06
-0.00102159983048438,0.00209467423526491,4.86019600143515e-06,7.76225140698499e-06
-0.000996327459593264,0.00210245860233656,2.0048736217327e-05,1.7350773536409e-05
-0.00100775963114259,0.00211803925740953,1.32033118465123e-05,3.05161952086781e-05
-0.0010244370117448,0.00213013900102013,9.724858898849e-07,4.27584901274791e-05
-0.0010133743890151,0.00213589681004863,3.12466390292477e-06,4.92251741668781e-05
-0.000999188482713013,0.00213711274487452,1.56370981291659e-05,5.05391018018664e-05
-0.000996577799116242,0.00213803065645877,1.99424935492402e-05,5.11295997914545e-05
-0.00101008421242739,0.00213960421917464,1.0519613059912e-05,5.21259045947516e-05
-0.00101069217984034,0.00213645709374291,2.00818034041438e-07,4.93153853591025e-05
-0.00100816494275123,0.00212526334078689,1.48970621436686e-06,3.91821392693781e-05
-0.00100306278485434,0.0021111489600628,1.31134979972557e-05,2.4053043078072e-05
-0.000989866315714497,0.00209678423981573,2.26321875509773e-05,9.16996433967693e-06
-0.000992679655115584,0.00208300364512227,1.34748504281192e-05,-3.53075943740178e-06
-0.00103671556930039,0.00206912768299149,-2.67412179089363e-05,-1.64592493849947e-05
-0.00110279328243692,0.00205557358596167,-9.30230807946533e-05,-3.22032805547454e-05
-0.00116553313526709,0.00203640473105936,-0.000157955706939319,-5.03378140254593e-05
-0.00119619376636706,0.002017629266836,-0.000189936173108359,-6.75100290473327e-05
-0.00118430859949044,0.00200849783471214,-0.000178797752361676,-7.81926180652342e-05
-0.00114377743862733,0.00201095354622326,-0.000137724074592938,-7.56821007836442e-05
-0.00108982331096073,0.00202921641047099,-8.28928064192955e-05,-5.60412721500506e-05
-0.00102620130933531,0.00206185591589546,-2.2783582043843e-05,-2.38245122201668e-05
-0.000971245823576797,0.00209251654699543,3.23695738943703e-05,7.31155750967027e-06
-0.000938022192598712,0.00210938466247229,6.65437783341594e-05,2.31330229753456e-05
-0.000931787546383592,0.00210427058364574,7.4121530089564e-05,2.01338288625663e-05
-0.000930893476658671,0.00209257615164376,7.27407314617045e-05,8.12955524424581e-06
-0.000910830552031431,0.00208592427289035,8.87666185774736e-05,5.89370964668996e-07
-0.00087789302336532,0.00208662760774062,0.000130571352737893,2.38630734933838e-06
-0.000822544146927842,0.00209112179822456,0.000182048217554527,7.87473091621015e-06
-0.000779926823373248,0.0020943642910936,0.000220374813595493,1.04840040543481e-05
-0.000772428558613572,0.00209521067709986,0.00023351538545575,1.1367886551837e-05
-0.000784134911545212,0.00209951413270915,0.000221654494191145,1.62429620741685e-05
-0.000813365031085314,0.00210748923465545,0.000190848697542811,2.54613939950493e-05
-0.000854539922150369,0.00211440337386151,0.000150692632353972,3.18553612511835e-05
-0.000890457683232885,0.0021134735413476,0.000113906944427137,3.00467247195595e-05
-0.000916707570356582,0.0021054269138233,9.06884951265024e-05,2.40291075029029e-05
-0.0009267569140647,0.00210236323489924,8.05151325810595e-05,2.15631335496835e-05
-0.000933790262567416,0.002105045444074,7.15420048921374e-05,2.30432688747117e-05
-0.000955283698754531,0.00210361493251413,5.07439400254531e-05,2.11782650182299e-05
-0.000995242654993692,0.00209153903076285,1.52078082087939e-05,1.22548576751657e-05
-0.00103436714615626,0.00208286059396628,-2.68018848560831e-05,2.48334962595678e-06
-0.00107098824208905,0.00208185923587437,-6.41655301218596e-05,8.46547292783428e-08
-0.00109856135240563,0.0020848633101501,-8.95802813388792e-05,4.80426720805367e-06
-0.00111027962626693,0.00208861840299478,-9.93975146817828e-05,9.64634651058227e-06
-0.00110191113364167,0.00209060919824893,-9.32836354710943e-05,1.08562296044869e-05
-0.00108658081809168,0.0020921112353868,-7.7744106572728e-05,1.1086872996741e-05
-0.00107491022794904,0.00209175360749683,-6.48071246477552e-05,1.31469698063794e-05
-0.00107039219560577,0.00209437621202327,-6.01488771727735e-05,1.58436406503114e-05
-0.00106607681906681,0.00209752333745499,-5.48633287310237e-05,1.7103571423478e-05
-0.00104597813165057,0.00209484112828023,-3.75035954761741e-05,1.64109940123952e-05
-0.00102273231880261,0.00209133637495854,-1.4372806212541e-05,1.21254152217332e-05
-0.00102157598862505,0.00208013070107285,-7.68012626612833e-06,1.07937044708509e-06
-0.00103728777392434,0.00206240427866008,-2.92371451131458e-05,-1.59271175119902e-05
-0.00107243067457859,0.00204663288871246,-6.56662145328299e-05,-3.25172980736446e-05
-0.0011087656681994,0.00203491461485115,-9.78548615916715e-05,-4.48388515065594e-05
-0.00113614804364133,0.00202072870854906,-0.000126344647419843,-5.71058133332999e-05
-0.00117048032107832,0.00200567257438139,-0.000163544410508269,-7.30505693762848e-05
-0.00120832927276667,0.00199472916094835,-0.000204266974246429,-8.51810774248867e-05
-0.00123251683905821,0.00199847233286335,-0.000221770839790253,-8.1015814192872e-05
-0.00120573051009956,0.0020180107365853,-0.000199355407764971,-5.98614260505581e-05
-0.00115269429401721,0.00204451096323198,-0.000152564722385581,-3.49129895010869e-05
-0.00111685997944236,0.00206427586461758,-0.000109478772577289,-1.65849319372507e-05
-0.00108169323692878,0.00207705510121912,-7.8012633832245e-05,-2.05789011427673e-06
-0.00104620462931422,0.00209270728187008,-4.56858577158411e-05,1.4217187133272e-05
-0.00100682979862868,0.002108860141567,-6.54032195015852e-06,2.76257559490465e-05
-0.000973808823454906,0.00210959923920627,2.7389949957917e-05,2.91472808561882e-05
-0.000955534038277509,0.00209938300248283,4.2934834664815e-05,1.97504468599965e-05
-0.000955569801066506,0.00209084761684225,4.08006709071842e-05,1.0195468596209e-05
-0.000967669544677111,0.00208821309138614,2.89006443651319e-05,7.24955048946775e-06
-0.000982546864899806,0.00208894026809575,1.19611780265473e-05,7.65644771007428e-06
-0.000998926222260369,0.00208790314721484,-4.67934237539219e-06,6.65519034390853e-06
-0.00100182300816911,0.00208669913331861,-1.02273827598336e-05,5.51760065915525e-06
-0.000988304673928301,0.00208894026809575,1.57317258939995e-06,7.51667952325141e-06
-0.000969612656212607,0.00209451926317926,2.18171966680942e-05,1.1369707219753e-05
-0.000951373633824207,0.00209455502596826,3.62711152135764e-05,1.30647792828929e-05
-0.000940692480843811,0.00209394705855531,4.48953155629101e-05,1.20952026556522e-05
-0.000925004537403854,0.00209573519800515,6.25782600934838e-05,1.21551492462365e-05
-0.000885331683476668,0.00209819090951627,9.91124292195295e-05,1.58101730929053e-05
-0.000836980392752909,0.00210394871854476,0.000145004699269819,2.07833966248895e-05
-0.000804972696600717,0.00210558188590895,0.000178875222935546,2.2280996380971e-05
-0.000796461152819464,0.00210089696055037,0.000184722733500804,1.82143813495096e-05
-0.000817143965789316,0.00209585440730181,0.000162573313102435,1.13544288257575e-05
-0.000851798108327276,0.00208969128666468,0.000128167083809148,6.21225499092754e-06
-0.000876319460649458,0.00208799851465216,0.000102632553675357,4.7238164154584e-06
-0.000881707720858319,0.00209038270058529,9.61927933405686e-05,6.14522134383745e-06
-0.00087740426524903,0.00209411395157063,9.97613663731682e-05,1.00181594165654e-05
-0.000880563311610419,0.00210020554662976,9.61093707837554e-05,1.60530013110331e-05
-0.000898921543295475,0.00210496199756634,7.88449325987523e-05,2.07707654545201e-05
-0.000919258649305025,0.0021020652116576,5.55743957794167e-05,1.8486120478071e-05
-0.000940942820366789,0.00209274304465908,3.45207334106326e-05,8.23486919946727e-06
-0.000960886535697373,0.00208162081728106,1.67861954665307e-05,-3.55918901131586e-06
-0.000972342549106034,0.00207258475259452,2.06963328662321e-06,-1.05973135732913e-05
-0.000983977376459681,0.00206964028296711,-8.4609334842972e-06,-1.39301831869615e-05
-0.000995266496853023,0.00206755412027562,-1.85122646738993e-05,-1.78033515792024e-05
-0.00101212269140021,0.00206305992979168,-3.58462192888907e-05,-2.14387327198356e-05
-0.00103576189492714,0.00206167710195047,-5.9333490651048e-05,-2.06899569043435e-05
-0.00105242735459968,0.00206807864118091,-7.56978238119207e-05,-1.61755815849636e-05
-0.00105422741497918,0.00207207215261889,-7.61202426338935e-05,-1.29932078816733e-05
-0.00104707485717981,0.00207097542708966,-6.78499873727591e-05,-1.1935600088105e-05
-0.00103892094128853,0.00207575571988557,-6.16605009772534e-05,-7.57581604756352e-06
-0.00103818184364926,0.00208616269148366,-5.71339788179669e-05,2.68020461599344e-06
-0.0010331392904007,0.00209699881654971,-5.14348280720551e-05,1.33388889953616e-05
-0.001033484997361,0.00210200560700927,-5.37431340305281e-05,1.82925370771732e-05
-0.00105845934501048,0.00210179103027529,-7.43716931895471e-05,1.9405995240819e-05
-0.00108729607387162,0.00210527194173765,-0.000102474274106939,2.31856231351485e-05
-0.00109524733395859,0.00211558354589841,-0.000111772839447824,3.10642054842962e-05
-0.00107719904644484,0.00211986315964837,-9.11354928426976e-05,3.72870102710784e-05
-0.00104541784795629,0.00211752665743391,-5.55887120030401e-05,3.61490879429034e-05
-0.00101138359376094,0.00211062443915751,-2.36243737095423e-05,2.82165793334169e-05
-0.00098569399033153,0.00210247052326623,1.92407346548487e-06,1.86131407701727e-05
-0.00097110277242081,0.00209282649116674,2.36121187744862e-05,1.08517878599341e-05
-0.000958395061397258,0.00208452952411947,3.41377379216428e-05,3.72579196502726e-06
-0.000967550335380455,0.00207722199423444,2.45917461323992e-05,-5.5561010340495e-06
-0.000993442594614183,0.00206718457145599,1.58995929115212e-06,-1.61813221477198e-05
-0.00101579433773722,0.0020572305951852,-1.61602631742406e-05,-2.36457539220546e-05
-0.001014554561052,0.00205662262777225,-1.77417011457376e-05,-2.5474042026207e-05
-0.00100622183121573,0.0020575763021455,-9.07651613398981e-06,-2.45765937124727e-05
-0.00100491052895251,0.00205794585096513,-2.68988439935654e-06,-2.47611660624649e-05
-0.00100677019398035,0.00205689680915456,-3.61630007465541e-06,-2.51415115844435e-05
-0.0010061622265674,0.00205959093925899,-4.8169497101526e-06,-2.23910866220107e-05
-0.000996983110724873,0.00206514609248317,6.58960205391643e-06,-1.69949036703695e-05
-0.00096908813530732,0.00207031977595805,3.66540268419663e-05,-1.29548976552588e-05
-0.000932657774249182,0.00207113039917531,7.57542991986461e-05,-1.15879775364149e-05
-0.000899922901387388,0.00207266819910218,0.000105610298351549,-9.86352202358573e-06
-0.000889277511195988,0.00207719815237511,0.000117274820022402,-5.46012753655515e-06
-0.000895488315551776,0.00208396924042518,0.000117368968352098,2.54366924482327e-07
-0.000895667129496761,0.00208967936573502,0.000114073689550739,5.01731747866327e-06
-0.000903022343100449,0.00209085953777191,0.000104742407626172,7.9520730870713e-06
-0.000931537206860614,0.00209085953777191,8.36988291449941e-05,8.20771488825016e-06
-0.000956916866118721,0.00209133637495854,5.47714653843615e-05,4.57516194705712e-06
-0.000986230432166483,0.00208274138466962,2.58622901919941e-05,-2.63299079837607e-06
-0.00101968056080821,0.00207049858990303,-4.61396216439799e-06,-1.20443558013978e-05
-0.00105954414961005,0.00206242812051941,-4.45177381424741e-05,-2.35801335219716e-05
-0.00110589272414999,0.00205103171175907,-9.28323611508138e-05,-3.69921612896892e-05
-0.0011547804567087,0.00203703654033163,-0.000139144983510629,-4.8450648788437e-05
-0.00119833953370688,0.0020317078847711,-0.000178290896096553,-5.31886475867786e-05
-0.00122479207663489,0.00203647625663735,-0.000212637982376001,-5.18221719497081e-05
-0.00125135190792989,0.00203977835415473,-0.000236032354997833,-4.88003972703539e-05
-0.00125164993117153,0.00204342615863241,-0.000228864900443813,-4.36244665814951e-05
-0.00119593150591442,0.0020576120649345,-0.000179535460462416,-2.97574132224066e-05
-0.00111652619341172,0.00208472025899412,-0.000103510289247423,-5.04643131567855e-06
-0.00105079418723549,0.0021115304298121,-3.01135362501119e-05,2.2327846866833e-05
-0.000996685087483232,0.00213195098232931,2.61923330415981e-05,4.21959303887872e-05
-0.000944352206251157,0.00214129699118715,7.13150750448523e-05,5.21988425202201e-05
-0.000903868729106708,0.00214515937239882,0.000110633005013368,5.52671504179742e-05
-0.000889170222828997,0.00214394343757292,0.000135381318538313,5.18489848106432e-05
-0.000889229827477326,0.00213141454049435,0.00013462231775727,4.03319694803537e-05
-0.000899350696763438,0.00211257947162267,0.000112030783613315,2.30460974571632e-05
-0.000938546713503999,0.00209844124903925,8.30539558411859e-05,6.8596693021286e-06
-0.000967967567918752,0.00209282649116674,5.90774833037527e-05,-1.68913218057015e-06
-0.000976812897730642,0.00209115756101355,4.0918780593718e-05,6.23453408659714e-07
-0.00099279886441224,0.00210361493251413,2.5540468523791e-05,1.32082821923472e-05
-0.00101263529137583,0.00212556136402853,1.1579344498937e-05,3.06909752087686e-05
-0.00102635628142096,0.00213750613555349,-2.16750468139518e-06,4.43968440647051e-05
-0.00103743082508032,0.00213937772151099,-1.61500938300543e-05,4.85508329968832e-05
-0.00104637152232954,0.00213755381927215,-2.45958387730466e-05,4.43724465343726e-05
-0.00104094749933168,0.00213048470798044,-1.72835555029836e-05,3.63727969012275e-05
-0.00102021700264317,0.00211944592711007,6.57545538449758e-06,2.70895681764584e-05
-0.000994634687580745,0.00210973036943259,2.99338668379157e-05,1.7570395887683e-05
-0.000989866315714497,0.00210331690927249,3.18819222116766e-05,9.19560019133412e-06
-0.00101692682605546,0.0020924927051361,1.06933906502277e-05,8.85631001893024e-07
-0.00104283100621885,0.00208060753825948,-1.38515198809569e-05,-1.24903153498502e-05
-0.00104879147105166,0.00205953133461066,-2.28592127876318e-05,-3.37494415398478e-05
-0.00104084021096469,0.00203458082882052,-1.59247848312205e-05,-5.66682133070601e-05
-0.00103282934622939,0.00202157509455532,-2.44217308842631e-06,-6.99481841163992e-05
-0.00101513868660561,0.00202617657340625,1.66956226405499e-05,-6.73480888724883e-05
-0.000978922902281457,0.0020400644564667,4.82635014303053e-05,-5.105399699014e-05
-0.000939667280892568,0.00206267846004238,8.88871502136808e-05,-2.71554785164366e-05
-0.000914883668117742,0.0020894767099307,0.00011918380816538,-1.95500088407327e-06
-0.000910687500875443,0.00211063636008718,0.00012182694212224,1.87991208690225e-05
-0.000930476244120374,0.00212084067588095,0.00010028991517109,3.18539236404085e-05
-0.00095833545674893,0.00212684882443242,7.28909238249913e-05,3.79752287744349e-05
-0.000986325799603808,0.00212918532664688,5.03947098871751e-05,3.91361723318113e-05
-0.00100749737068995,0.00212526334078689,2.69608609450007e-05,3.56379760333037e-05
-0.0010385156296799,0.00211575043891373,-5.83269236963493e-06,2.85738110136888e-05
-0.00107847458591906,0.00210938466247229,-4.42183186207652e-05,2.21893980459913e-05
-0.00111595398878777,0.00210784686254542,-7.73823978456917e-05,1.94041659147297e-05
-0.0011372328482409,0.00210440171387206,-0.000101676932078662,1.72909212299852e-05
-0.00115383870326511,0.00209693921190138,-0.000119859941951949,1.18057865356051e-05
-0.00116410262370721,0.00209063304010827,-0.000127019882501499,4.75899966448585e-06
-0.00114725835008969,0.00208644879379563,-0.00010888672366443,6.07225858445938e-07
-0.00109653479436247,0.00208345664044956,-6.02722297392621e-05,-1.49761308036703e-06
-0.00103224522067578,0.00207794917094404,2.30827880279311e-06,-5.82309999789751e-06
-0.000983691274147705,0.00207133305497963,5.42709495090558e-05,-1.16241192689175e-05
-0.000952732619806088,0.00207055819455136,8.46265115306038e-05,-1.41154319970264e-05
-0.000938427504207343,0.00206927073414747,9.67383330567893e-05,-1.37384955151867e-05
-0.000941526945920404,0.00206412089253192,9.33523689616708e-05,-1.65255465658451e-05
-0.000962221679819922,0.00205901873463504,7.35007263749552e-05,-2.38719150916167e-05
-0.000991714059812668,0.00205259335354527,4.40246231447161e-05,-2.96498204609001e-05
-0.00101205116582222,0.00205037606062746,2.10122780825621e-05,-3.00364956782178e-05
-0.00101848846784165,0.00205160391638302,1.35380813622381e-05,-2.89945501056688e-05
-0.00101990705847186,0.00205011380017482,1.31502367846606e-05,-3.06071022068871e-05
-0.00102738148137221,0.00204767000959337,4.85924429161542e-06,-3.2781363185941e-05
-0.00104479795961368,0.00204744351192972,-1.59899206085389e-05,-3.27102998341627e-05
-0.00106848484685927,0.00204699051660243,-4.07474862119141e-05,-3.19696899945204e-05
-0.00108491188793849,0.00204828989793598,-5.61910352649259e-05,-3.06867291107851e-05
-0.00108141905554647,0.00205931675787668,-5.40466506873264e-05,-2.22903386649178e-05
-0.00105998522400768,0.00207691205006314,-3.79296146493688e-05,-9.3703939171088e-07
-0.00104529863865963,0.00210667861143819,-2.33905657728115e-05,2.88735338654329e-05
-0.00104984051286224,0.0021366001448989,-2.51259333871208e-05,5.55681335590799e-05
-0.0010608435309436,0.00215032113494403,-4.27768928894272e-05,7.07715551530783e-05
-0.00108129984624981,0.00214967740474209,-6.68134605570781e-05,7.22382294920281e-05
-0.00111600167250643,0.00214000953078327,-9.79221190295043e-05,6.11261178388877e-05
-0.00116111047036114,0.00212419045711699,-0.000146921287823344,4.26982202548006e-05
-0.00122147805818785,0.00210510504872233,-0.000211479385166533,2.61151160194997e-05
-0.00127748258575693,0.0020932914074237,-0.000269377715625265,1.57747311087275e-05
-0.00131260164455185,0.00208593619382001,-0.000304510325539458,4.47345062522024e-06
-0.00132889755540476,0.00206412089253192,-0.000321889336029431,-1.71917487081676e-05
-0.00131993301629621,0.00203363907537693,-0.000319975098784753,-4.50422855622524e-05
-0.0012641430654611,0.0020180107365853,-0.000265611420173719,-6.26226325467275e-05
-0.00112966305790323,0.00202283871309988,-0.000126679488049473,-5.95198697681852e-05
-0.000920760686442893,0.00203950417277242,7.25895586782733e-05,-4.17332963352112e-05
-0.000735855146399447,0.00205947172996233,0.000256685788192961,-2.21947130278696e-05
-0.000625550784203457,0.00207406294787305,0.000365768056690232,-8.01541144252576e-06
-0.00059344772061394,0.0020826817800213,0.000397956774795799,-6.53223209200538e-07
-0.000603342092236405,0.0020815373707734,0.000382773105105527,-2.1757339425868e-06
-0.000641381778799401,0.00206927073414747,0.000340636911540187,-1.43810887086833e-05
-0.000701594394540453,0.00205057871643178,0.00028325134719472,-3.3040061585686e-05
-0.000752902075821285,0.00203795445191589,0.000229257965915602,-4.76856384264003e-05
-0.000783526944132265,0.00203837168445418,0.000192595858375134,-4.80454442457401e-05
-0.000812244463696746,0.00205470335809608,0.000163979659512161,-3.02937912266318e-05
-0.000851893475764601,0.00208674681703727,0.000125234368815867,6.81941806908713e-07
-0.000895869785301076,0.00212205661070684,7.74099077215227e-05,3.32058248408859e-05
-0.000932848509123832,0.00214281094925469,3.648465988872e-05,5.50672092429312e-05
-0.000965499935477968,0.00214828265597121,5.31245672335538e-06,6.09839232365677e-05
-0.00100075012449921,0.00214374078176861,-3.02795203604668e-05,5.44790765104985e-05
-0.00104324823875715,0.00213341725667818,-7.7126432788877e-05,4.25821946221165e-05
-0.00108919150168845,0.00211981547592971,-0.00012498997688823,3.02076447285417e-05
-0.00113281018333496,0.00210908663923065,-0.000164335227458878,1.92355059211296e-05
-0.00115908391231799,0.00210152876982264,-0.000196132519260813,9.27717722945248e-06
-0.00117896802300024,0.002089822416891,-0.000217372826732929,-2.45207888062331e-06
-0.00117834813465763,0.00207270396189117,-0.000213579491579924,-1.86596246785894e-05
-0.001139867373697,0.00205682528357656,-0.000177733728270776,-3.64401648427304e-05
-0.00108572251115575,0.00204712164682875,-0.000125327907687894,-4.65678911229281e-05
-0.00103913551802251,0.00205178273032801,-7.73070962969182e-05,-4.15290573270738e-05
-0.000997233450247851,0.00207173836658826,-3.482250418023e-05,-2.29285940868585e-05
-0.000944447573688482,0.00209575903986448,1.60957217358779e-05,1.32228498618542e-06
-0.000882887892895215,0.00211943400618041,7.82427513393016e-05,2.46493784086101e-05
-0.000828099300152022,0.00213898433083202,0.000134219044769607,4.31484380407054e-05
-0.000798010873675994,0.00214760316298027,0.000164004626699237,5.21717315028278e-05
-0.000801551389786684,0.00214378846548727,0.000161738547417062,4.81726591764337e-05
-0.000828409244323328,0.00213190329861065,0.00013409255322716,3.49027232525523e-05
-0.000872147135266491,0.00211768162951956,9.18942123208826e-05,2.22939711288526e-05
-0.000918936784204053,0.00211303246694997,4.74197323485249e-05,1.61157914952401e-05
-0.00095381742440566,0.00210953963455794,1.20460776394176e-05,1.19115686973017e-05
-0.000977027474464624,0.00209735644443968,-1.060051681765e-05,1.98172904175411e-06
-0.000995326101501352,0.00208263409630263,-2.67322667228503e-05,-1.42489528203839e-05
-0.00101436382617735,0.00206836474349289,-4.30736876733299e-05,-3.00542263297976e-05
-0.00102858549526843,0.00205625307895261,-5.69570964069215e-05,-3.96757552170039e-05
-0.00103045708122594,0.00205286753492758,-5.9399118993458e-05,-4.28985307302273e-05
-0.00102212435138967,0.00205616963244496,-4.72169419653128e-05,-4.18756914515087e-05
-0.00100786691950958,0.0020597935950633,-2.86222026234508e-05,-3.73946596384262e-05
-0.000993239938809868,0.00206515801341283,-1.59257760857611e-05,-2.97249501467182e-05
-0.000991332590063369,0.00207607758498654,-1.40411734100324e-05,-2.05155591298794e-05
-0.000999915659422616,0.0020853163054774,-1.64253204234671e-05,-1.16420717345137e-05
-0.00100102430588152,0.00209246886327677,-1.17726127052092e-05,-3.23169797540455e-06
-0.000976371823333014,0.00210003865361444,4.65978162216061e-06,5.45210796539671e-06
-0.000961017665923695,0.00210949195083928,2.54034913065767e-05,1.37259938564905e-05
-0.000959885177605461,0.00211484444825914,3.70080194790168e-05,1.96713309804945e-05
-0.000959384498559505,0.00211744321092625,3.31477550870793e-05,2.25613477086926e-05
-0.000968301353949389,0.00211697829466929,2.14918521918465e-05,2.37873199005433e-05
-0.000983011781156765,0.00211887372248612,1.67757955767374e-05,2.50013161687027e-05
-0.000976991711675627,0.00212101948982593,2.68610570300552e-05,2.62260346741909e-05
-0.000953781661616663,0.00211803925740953,4.52897490020243e-05,2.62172515304109e-05
-0.000946259554997656,0.00211620343424102,5.64430227093664e-05,2.40385093189347e-05
-0.000960874614767707,0.00211297286230164,4.79072462916824e-05,1.99340008745267e-05
-0.000991189538907381,0.00210661900678986,1.98158776900465e-05,1.52937855882228e-05
-0.00102586752330467,0.00210306656974951,-1.61314451907981e-05,1.20498339974443e-05
-0.00106035477282731,0.00210173142562696,-4.7292979761751e-05,1.11753388454968e-05
-0.00108644968786536,0.00210156453261164,-7.05131255263538e-05,1.11159561866677e-05
-0.00111303336101969,0.00209833396067226,-9.13700639154314e-05,8.69084353827722e-06
-0.00113301283913927,0.00209219468189446,-0.000113717032421823,2.69048037688099e-06
-0.0011532545777115,0.00208414805437017,-0.000133751499018182,-4.20719359340049e-06
-0.00117455727902396,0.00207976115225322,-0.000146320714428143,-8.53908741683967e-06
-0.00118041045548978,0.00207824719418569,-0.000152051737727868,-1.02558051963711e-05
-0.00117948062297586,0.00207538617106594,-0.0001518660559383,-1.16030245230238e-05
-0.00116623647011736,0.00207457554784867,-0.000136895689047106,-1.22061764490273e-05
-0.00112800604867971,0.00207824719418569,-9.34720119182215e-05,-8.62394178858709e-06
-0.00106107002860725,0.00208603156125734,-2.20181290924264e-05,-1.26439489166776e-07
-0.000976681767504321,0.00209410203064096,5.56022394612811e-05,8.29580844593534e-06
-0.000923407132828661,0.00209685576539372,0.000113732982175251,1.15718653895616e-05
-0.00090111499435395,0.00209573519800515,0.000144827009865914,1.09336251794363e-05
-0.000881207041812363,0.00209598553752813,0.000158757473088983,1.08883026498897e-05
-0.000877249293163377,0.00209580672358315,0.000164275960470756,1.11657758822357e-05
-0.000885772757874295,0.00209010851920298,0.000160009948971626,6.55367159029401e-06
-0.000902998501241118,0.0020788670825283,0.000144499831891294,-4.67033383557644e-06
-0.000922966058431033,0.00206753027841629,0.000125944494606677,-1.6916225253947e-05
-0.000929963644144752,0.00205963862297765,0.000115268951541721,-2.40802836793227e-05
-0.000938177164684365,0.0020553232464387,0.000112887984220847,-2.61925819062957e-05
-0.000944924410875106,0.00205734980448185,0.000108397467117329,-2.62848452174291e-05
-0.000958216247452274,0.0020598293578523,9.24680830653726e-05,-2.44468866264128e-05
-0.00098751789257037,0.00206165326009114,6.37064926947945e-05,-1.97453894896398e-05
-0.0010301590579843,0.00206615937150475,2.37595289678025e-05,-1.56614514437945e-05
-0.00108387476705758,0.00206606400406742,-2.72518785508248e-05,-1.77412286370632e-05
-0.00113822228540315,0.00205706370216988,-8.5300910154455e-05,-2.60542984723449e-05
-0.00118967301783997,0.00204511893064493,-0.000136208153965085,-3.54779179779427e-05
-0.0012204886210256,0.0020385385774695,-0.000162249229444162,-4.41819877314773e-05
-0.00121184594701802,0.00202790510820777,-0.000156586813565184,-5.56923645575306e-05
-0.00118188865076832,0.00201246750429079,-0.000126932170047732,-6.94797584555468e-05
-0.00114099986201524,0.00200642359295032,-8.41074964679662e-05,-7.4991583315164e-05
-0.00108889347844681,0.00202242148056158,-3.29849589528853e-05,-6.08641237641316e-05
-0.00103430754150793,0.00205464375344776,2.16569671681132e-05,-2.81196679574687e-05
-0.000990045129659481,0.00209283841209641,6.677406411479e-05,1.04014684920076e-05
-0.000967335758646474,0.00212456000593662,8.75633743392637e-05,4.22835242315172e-05
-0.00097254520491035,0.00214551700028878,8.19442460592693e-05,6.27196604219505e-05
-0.000995802938687976,0.00215497029751362,6.15848584532003e-05,7.12772910675135e-05
-0.00101614004469753,0.00215108407444263,3.7568365388602e-05,6.85982878392035e-05
-0.00104169851790062,0.00214145196327281,1.10544528363015e-05,5.85640520164502e-05
-0.00107630497671991,0.002131676800947,-2.08741016664932e-05,4.84496839468623e-05
-0.00110964781699466,0.00212682498257309,-5.73295804796898e-05,4.27795980303478e-05
-0.00114765174076866,0.00212266457811979,-9.49449274712642e-05,3.93172017767796e-05
-0.00118194825541665,0.00211644185283433,-0.000130997326084193,3.38851121737682e-05
-0.00121234662606398,0.00211135161586711,-0.000161065336409144,2.66352951621912e-05
-0.00122935779269682,0.0021046282115357,-0.000178767878525355,2.03602521890738e-05
-0.0012304068345074,0.00209782136069664,-0.000181808209709605,1.50402540496806e-05
-0.0012219787372338,0.00209326756556437,-0.000172632792936946,8.58047903840943e-06
-0.00119597918963308,0.0020864249519363,-0.000149243027311318,2.02499257533631e-06
-0.00115077502434105,0.00208296788233327,-0.000104180223387022,-7.94086667237404e-07
-0.00108873850636116,0.00208561432871904,-4.12099428643692e-05,5.85880274891444e-07
-0.00102875238828375,0.0020857335380157,1.54709150827012e-05,1.933297520033e-06
-0.000998604357159397,0.00208536398919606,4.3210396689315e-05,9.04602061263153e-07
-0.000996267854944936,0.00208618653334299,4.94450606103526e-05,7.72135654965226e-07
-0.000980782567309294,0.00208841574719046,6.30555341039768e-05,4.39249148150831e-06
-0.000941193159889767,0.00209195626330115,9.56259865823678e-05,7.82568701593772e-06
-0.000915646607616341,0.00209026349128863,0.000126543179235879,4.7635925810079e-06
-0.000909948403236175,0.00208054793361115,0.000132583755451638,-4.00573344892071e-06
-0.000917863900534147,0.0020735622688271,0.000118157616538284,-1.06525786753832e-05
-0.000931799467313258,0.00207437289204436,0.000105347765852128,-1.03660725228596e-05
-0.000934588964855013,0.00207804453838137,0.00010406178456753,-6.78565787055424e-06
-0.000932109411484564,0.00207875979416131,0.000105344622305277,-5.70643901084052e-06
-0.000934851225307657,0.00207663786868083,9.89498893976841e-05,-7.80963446087547e-06
-0.000949907359475336,0.00207330000837445,8.42171901899887e-05,-1.10379705780229e-05
-0.000971949158427069,0.00206773293422061,6.45482280590813e-05,-1.65022476907021e-05
-0.000990414678479116,0.00205805313933212,4.22578955462027e-05,-2.6519767962792e-05
-0.00101183658908824,0.00204647791662681,2.04191236328413e-05,-3.78750981961567e-05
-0.00103021866263262,0.0020401359820447,2.18345612908942e-06,-4.27933838489494e-05
-0.00104453569916103,0.00204653752127513,-1.24389126425575e-05,-3.80224915582023e-05
-0.00105471617309547,0.00205603850221863,-2.33828803016631e-05,-2.85793874365338e-05
-0.00105676657299796,0.00206198704612178,-2.6267179199906e-05,-2.0404408677066e-05
-0.00104814774084972,0.00207002175271641,-1.90348113621994e-05,-1.3289956898673e-05
-0.00104074484352737,0.0020800114917762,-9.93516226112435e-06,-4.33507457562698e-06
-0.00103725201113534,0.00208823693324548,-7.84559219917475e-06,4.85489629622664e-06
-0.00103383070432131,0.00209072840754559,-5.51034532968357e-06,9.1495227570951e-06
-0.00101350551924142,0.00209047806802261,1.41128437589075e-05,7.05614010711119e-06
-0.000977265893057936,0.00208656800309229,5.16439398441613e-05,2.78142338707659e-06
-0.000943994578361188,0.00208297980326294,8.45105123848228e-05,1.17981211399422e-06
-0.000933146532365473,0.00208568585429703,9.24740776279049e-05,4.10512818520222e-06
-0.000948572215352786,0.00209498417943622,7.83181449762561e-05,1.17204212458304e-05
-0.000971329270084457,0.00210574877892427,5.64301726273122e-05,2.31686318025413e-05
-0.000991714059812668,0.00211538089009409,3.43773676302225e-05,3.4360495874244e-05
-0.00100780731486126,0.00212036383869432,1.70006054581014e-05,3.8854088317327e-05
-0.00101020342172405,0.00211740744813725,1.5053015274934e-05,3.41798684377717e-05
-0.000995636045672658,0.00210646403470421,3.1010616701996e-05,2.56080088909873e-05
-0.0009807110417313,0.00210154069075231,4.33775709551861e-05,2.06440013462569e-05
-0.000996732771201895,0.00210280430929686,2.61063996835043e-05,2.02778622773607e-05
-0.00104186541091594,0.0020993591606235,-1.65672143973409e-05,1.82207574381386e-05
-0.00107699639064052,0.00208981049596134,-5.35777278785574e-05,9.23297869059814e-06
-0.0010897279435234,0.00207843792906034,-6.77653174285453e-05,-3.81710604129375e-06
-0.00109745270594673,0.0020685316365082,-7.43874491531995e-05,-1.28279230476479e-05
-0.00111469037024321,0.00206582558547411,-9.32480408298346e-05,-1.39145016626022e-05
-0.00114290721076174,0.00207098734801932,-0.000121672450224969,-1.18277309778189e-05
-0.00116770274446623,0.00206848395278954,-0.000146395927261606,-1.31028160985924e-05
-0.00118418939019378,0.0020636082925563,-0.000164737131044846,-1.61148457486138e-05
-0.00119582421754743,0.00206962836203744,-0.00017681873567031,-1.22533317100002e-05
-0.00118796832489779,0.00208429110552616,-0.000169567806881358,1.22938516033892e-06
-0.00115063197318506,0.00209420931900795,-0.000130531503250374,1.41068620117928e-05
-0.00108908421332146,0.00209544909569318,-7.40935909454395e-05,1.40029072820486e-05
-0.00104783779667841,0.0020845891287678,-3.40935960537183e-05,1.91087084514805e-06
-0.00104929215009762,0.00207294238048448,-2.76484895019778e-05,-9.31838280354303e-06
-0.00105068689886849,0.00207079661314467,-4.003370585693e-05,-1.09754610010819e-05
-0.0010582805310655,0.00207601798033821,-4.70718921656345e-05,-5.60155044527022e-06
-0.00105537182422708,0.00208563817057837,-3.93322628915186e-05,2.17035927948842e-06
-0.00103445059266392,0.00209563983056783,-2.19192669177342e-05,1.20929775005277e-05
-0.00101060873333268,0.00210286391394519,-3.76906175014507e-06,2.10128266798429e-05
-0.00100114351517817,0.00210137379773699,7.94194400952834e-06,1.84117530299558e-05
-0.000999462664095322,0.00208303940791127,1.34474246351195e-05,-1.62104687981208e-06
-0.000980401097559994,0.00205562126968034,2.40948264307051e-05,-2.92299253125909e-05
-0.00095468765227125,0.00203255427077736,4.92655628199542e-05,-4.9114340383857e-05
-0.00092991596042609,0.00202662956873355,7.7015614233011e-05,-5.85262608615184e-05
-0.000922930295642036,0.00202233803405392,8.32193558101833e-05,-6.47432790516751e-05
-0.000931918676609914,0.00201615107155747,6.74271765837931e-05,-6.70267160993623e-05
-0.00093683009963215,0.00203033697785956,6.31535756722921e-05,-5.43215962606253e-05
-0.000907003933608766,0.00206407320881326,9.80666875166269e-05,-2.38545154176503e-05
-0.000842237522735448,0.00209500802129555,0.000155759650164727,9.55724297402967e-06
-0.000799608278251188,0.00211522591800844,0.000194101463060026,2.91144060043505e-05
-0.000807881403439129,0.00211987508057803,0.000193458904819958,3.30320650669573e-05
-0.000828850318720956,0.00211784852253488,0.000167733898445022,3.02754401704586e-05
-0.000858378461502699,0.00211563122961707,0.000132557851588838,2.73139993527389e-05
-0.000910139138110825,0.00211299670416097,8.59909609298569e-05,2.64916561869544e-05
-0.000968074856285742,0.00211901677364211,2.54365385712767e-05,3.03788218475916e-05
-0.00102709537906023,0.00212750447556403,-3.63279963277873e-05,3.77522827857834e-05
-0.00107433802332509,0.00212730181975972,-8.30522948540228e-05,3.92621114225655e-05
-0.00110104090577608,0.00211611998773336,-0.00011033820770152,2.7343521938775e-05
-0.00110788351940414,0.00209946644899049,-0.000119407366935059,8.8691168722955e-06
-0.00109835869660131,0.00208811772394882,-0.000107455833605841,-1.7970523279829e-06
-0.00106350189825904,0.00208711636585691,-7.71393353391337e-05,-2.26484124394739e-06
-0.00103440290894526,0.0020857335380157,-4.76295311471594e-05,-4.90203194289519e-06
-0.00103124386258387,0.00207320464093713,-4.06008664682372e-05,-1.82812983901495e-05
-0.00103946930405315,0.00205569279525833,-5.51573899853319e-05,-3.51544012353247e-05
-0.0010521412522877,0.00204681170265744,-6.70630248802894e-05,-4.31215819306582e-05
-0.00104410654569307,0.00205315363723955,-5.43602142173246e-05,-3.93730203208218e-05
-0.0010020375849031,0.00206381094836062,-1.74043835494498e-05,-2.88446954347182e-05
-0.000958323535819264,0.00207580340360423,2.56498300589365e-05,-1.39548106396295e-05
-0.000933539923044438,0.00209794056999329,5.56808911893568e-05,5.76944800221022e-06
-0.000920856053880218,0.00212060225728764,6.43475235972393e-05,2.63666110907425e-05
-0.000928604658162871,0.00213022244752779,5.64573944590451e-05,3.94231848323728e-05
-0.000944626387633466,0.00213168872187666,4.40689166073608e-05,4.05006173076759e-05
-0.000951683577995513,0.00212780249880567,3.51612814918212e-05,3.33824308935364e-05
-0.00095947986599683,0.00211732400162959,2.70930657242381e-05,2.50590936357374e-05
-0.000976526795418667,0.00211079133217283,1.33255681015981e-05,1.92247080174174e-05
-0.000994384348057768,0.00210783494161576,-5.47572954217277e-06,1.50266190282398e-05
-0.00101085907285566,0.00210300696510118,-2.19860091215802e-05,9.78319955025826e-06
-0.00102465158847878,0.00209460270968692,-3.25902564807921e-05,2.21829476775559e-06
-0.00103242403462076,0.00208667529145928,-4.10213851386794e-05,-5.87557966187529e-06
-0.00104449993637204,0.00208030951501784,-5.13434535639898e-05,-1.13345841059425e-05
-0.00105694538694295,0.00208011878014319,-6.32919663506495e-05,-1.34630957810236e-05
-0.00107082134907373,0.00207818758953736,-7.5336378492777e-05,-1.45080430309887e-05
-0.00108342177173029,0.00207589877104156,-8.55795771270556e-05,-1.50259883257236e-05
-0.00108433968331454,0.00208107245451644,-8.73236268683131e-05,-1.13807964971302e-05
-0.00106979614912249,0.00209246886327677,-7.09431897068449e-05,-9.99826464286766e-07
-0.00103909975523351,0.00210223210467291,-3.54922440748612e-05,1.1617484314496e-05
-0.000995588361953995,0.00211023104847855,5.90266473207544e-06,1.82949348300511e-05
-0.00096631055869523,0.00210840714623971,3.73087541089007e-05,1.6451917266545e-05
-0.000953292903500372,0.0021027566255782,5.37954401723416e-05,1.13492994403147e-05
-0.000948894080453758,0.00210033667685608,6.03449325236374e-05,8.77628468124418e-06
-0.000946211871278993,0.00209994328617712,6.15154797223463e-05,9.19020357086198e-06
-0.000953424033726694,0.00210089696055037,5.85651608649638e-05,1.01632505963201e-05
-0.000960481224088742,0.00210247052326623,5.42243116301307e-05,1.09051538151133e-05
-0.000962483940272566,0.00210208905351693,5.23633160807486e-05,1.18629256598088e-05
-0.000965201912236328,0.00210236323489924,5.14864015867535e-05,1.21183384000348e-05
-0.000975358544311437,0.00209971678851347,4.40754886096861e-05,9.74308310869531e-06
-0.000996542036327245,0.00209418547714862,2.51721071505341e-05,3.7798169464755e-06
-0.0010236383094572,0.00208498251944676,-7.48657377918023e-07,-5.41301727807196e-06
-0.00104626423396255,0.00207204831075956,-2.22369080130811e-05,-1.62949777863727e-05
-0.00105530029864909,0.0020640255250946,-2.80127684173085e-05,-2.54903692857599e-05
-0.00104192501556426,0.00206136715777917,-1.28014571009749e-05,-2.91913300158475e-05
-0.00101097828215231,0.00206109297639686,1.87296998249491e-05,-2.72454904464578e-05
-0.000980198441755679,0.00206372750185296,5.20391606347615e-05,-2.40811590401411e-05
-0.000962579307709891,0.00206658852497271,7.10562148996493e-05,-2.32861924655733e-05
-0.000966048298242587,0.00206578982268511,7.02384426231924e-05,-2.28647393068383e-05
-0.000979209004593432,0.00206910384113215,5.7290713188633e-05,-1.85347233225829e-05
-0.000995516836376002,0.00207777035699906,4.29764909690894e-05,-1.03147006401218e-05
-0.00100910669619481,0.00208592427289035,3.12464634752711e-05,-2.51055379502367e-06
-0.00102015739799484,0.00208998930990632,2.12641510166843e-05,2.0761976509274e-06
-0.00102819210458947,0.00209169400284851,1.46892259377367e-05,4.13031537648556e-06
-0.00102911001617372,0.00209115756101355,1.50462669618791e-05,3.92348074302497e-06
-0.00102313763041125,0.00208730710073156,2.05601795050624e-05,-3.65053659312813e-07
-0.00102444893267446,0.00207887900345796,2.33694233753766e-05,-8.72578336003909e-06
-0.00102956301150101,0.00206995022713841,1.81749439890106e-05,-1.70988088039683e-05
-0.00103651291349607,0.00206512225062384,8.19173535338017e-06,-2.16584136238543e-05
-0.00105102068489913,0.00206373942278263,-2.09130116200042e-07,-2.30214839013301e-05
-0.00105693346601328,0.00206434739019557,-6.01697989183539e-06,-2.34906401763441e-05
-0.00105978256820336,0.00206450236228122,-1.28544690325063e-05,-2.19670733115398e-05
-0.00107166773507999,0.00207083237593367,-2.13008003150262e-05,-1.49963291952977e-05
-0.00108104950672683,0.00208480370550178,-2.76247264948812e-05,-2.27184633906699e-06
-0.00108109719044549,0.00209962142107614,-3.20596043140281e-05,1.21522843862021e-05
-0.00109311348754844,0.00211037409963453,-4.30200683486558e-05,2.45275201037539e-05
-0.00112011439324107,0.00212005389452302,-6.7333704790297e-05,3.45586171546316e-05
-0.00114914185697686,0.0021301866847388,-9.83037216791956e-05,4.29411405610988e-05
-0.00117096907919461,0.00213544381472133,-0.000120693632249965,4.81464946987633e-05
-0.00117952830669453,0.00213235629393794,-0.000129231769816211,4.75060300261871e-05
-0.00118757493421882,0.00212644351282379,-0.000135287731321507,4.03707220250541e-05
-0.00119836337556621,0.00211577428077306,-0.000150291021263103,2.86944907674593e-05
-0.0012178183327805,0.00210181487213462,-0.000168106382418441,1.51045478702912e-05
-0.00122331388135635,0.00208657992402195,-0.000171972292483274,1.36709245655669e-06
-0.00120207078469221,0.00207316887814813,-0.000156328672445446,-1.21746485786216e-05
-0.00117899186485957,0.00206112873918585,-0.000131402803785685,-2.67582354669624e-05
-0.00115526921482499,0.0020430804516721,-0.000104132343308387,-4.33980137715553e-05
-0.00110753781244384,0.00202524674089233,-6.5032078516e-05,-5.87168046144755e-05
-0.00104738480135112,0.00202344668051283,-1.78373561952609e-06,-6.35723040244079e-05
-0.000967228470279483,0.00203824055422786,7.99060191954004e-05,-4.95297188652312e-05
-0.000886511855513564,0.00206661236683204,0.000157714259203732,-1.817875062697e-05
-0.000827682067613725,0.00210411561156008,0.000212448265971954,1.82826596006184e-05
-0.000804758119866736,0.0021343113264031,0.000238571261529815,4.73025634918722e-05
-0.000806748915120895,0.00215162051627758,0.000237397884786177,6.48797244674776e-05
-0.00082769398854339,0.0021590353345296,0.000210969784391338,7.32189786755327e-05
-0.000871110014385582,0.00215958369729422,0.000166265635775643,7.3551187283828e-05
-0.000924396569990907,0.00215276492552548,0.000116894404624889,6.57639548632131e-05
-0.000966620502866536,0.00213971150754163,7.36127986714086e-05,5.28735652423137e-05
-0.00099701887351387,0.00212581170355151,3.61056711050457e-05,3.94802580723709e-05
-0.00103815800178993,0.00211144698330444,-2.34283673232287e-06,2.50239745304729e-05
-0.00108537680419545,0.00209144366332553,-4.57664274296641e-05,4.47616830783223e-06
-0.00112800604867971,0.00206567061338846,-9.35574144205966e-05,-2.17253366880201e-05
-0.00117117173499893,0.00204333079119508,-0.000141177663022928,-4.3752051338902e-05
-0.00121243007257164,0.00203336489399462,-0.000177702482046111,-5.25931829852146e-05
-0.00122720010442734,0.00203797829377522,-0.000189521831095954,-5.02191875370236e-05
-0.00120400197529805,0.00204337847491374,-0.000175137985523415,-4.4775535165194e-05
-0.0011782527672203,0.00204699051660243,-0.000151223866284426,-3.91905326550347e-05
-0.00117115981406926,0.00205694449287322,-0.000132881911433794,-3.09334011833954e-05
-0.00114187008988083,0.00206781638072827,-0.000110701719961541,-2.10316024724668e-05
-0.00108447081354086,0.0020719648642519,-6.10814852890118e-05,-1.53804642800182e-05
-0.00101348167738209,0.00207258475259452,1.93887131369421e-05,-1.57452016157175e-05
-0.000930666978995024,0.0020716191572916,0.000104060443160466,-1.61322106568489e-05
-0.000857555917355771,0.00207860482207565,0.000165723180875473,-1.13312901088705e-05
-0.000826501895576828,0.00208362353346488,0.000201993431352447,-4.33406796493676e-06
-0.000810134459145931,0.00208673489610761,0.000222872129189408,-1.63457440405996e-06
-0.000798690366666935,0.00208542359384439,0.000228092707903456,-4.59128083689487e-06
-0.000812733221813036,0.00208059561732981,0.000213531773030155,-9.26873764581505e-06
-0.000838375141523787,0.00207535040827694,0.000191014600059589,-1.25932378658776e-05
-0.000848758271262543,0.0020758510873229,0.000180397832048034,-1.47417299588853e-05
-0.000844049504044622,0.00207484972923098,0.000181501131117915,-1.60440951174604e-05
-0.000855636647679606,0.00207445633855202,0.000172228325618979,-1.46432717038739e-05
-0.000888848357728026,0.00208168042192938,0.000139337798704906,-8.35735859495895e-06
-0.000931143816181649,0.00209308875161938,9.51598132971857e-05,1.46745139913101e-06
-0.00097023254455522,0.0020997048675838,5.60254522762728e-05,8.40258336647505e-06
-0.00100895172410916,0.0020948172864209,1.87863948991407e-05,5.38704999794962e-06
-0.00105381018244089,0.00208473217992378,-2.82586853900317e-05,-6.58018032235773e-06
-0.00110616690553229,0.00207771075235073,-8.03404240691808e-05,-1.59188570639476e-05
-0.00114279992239475,0.00207840216627134,-0.000117068761648883,-1.16590738657759e-05
-0.00115120417780901,0.00209321988184571,-0.000125841824576372,2.73560194680608e-06
-0.00113832957377014,0.00210665476957886,-0.00011282000962467,1.25849057502685e-05
-0.00111358172378431,0.00210337651392081,-9.14455794999321e-05,1.06562186618127e-05
-0.00109713084084575,0.00209563983056783,-7.13583543127326e-05,5.92920904353784e-06
-0.0010844946554002,0.00210294736045285,-6.11982175505113e-05,9.72806511086635e-06
-0.00109312540847811,0.00211448682036917,-7.19525101321205e-05,1.97221495498504e-05
-0.0011304736811205,0.0021157265970544,-0.000108232663127626,2.48739168147905e-05
-0.00117919452066389,0.00211365235529258,-0.000156718429750096,2.21103280560205e-05
-0.00120754249140873,0.00211483252732948,-0.000188885810371967,1.93670218864044e-05
-0.001200759482429,0.00211553586217975,-0.000180495852173395,2.28839250696354e-05
-0.00115072734062239,0.00212018502474934,-0.000132011160554811,2.94056362803315e-05
-0.00108696228784098,0.00212740910812671,-7.01134544987818e-05,3.24530425383971e-05
-0.00104328400154614,0.00212364209435237,-2.64912110199559e-05,3.02285948807218e-05
-0.00103064781610059,0.00211713326675494,-1.38516919208948e-05,2.51514383263526e-05
-0.00103530889959984,0.0021133662529806,-2.29566025709209e-05,2.02146548216638e-05
-0.00105230814530302,0.00211173308561641,-3.90206734440567e-05,1.79163233283113e-05
-0.00106837755849228,0.0021118761367724,-5.40793614389598e-05,1.89846744688807e-05
-0.00107436186518442,0.00211280596928632,-6.50091147194798e-05,2.00492506282781e-05
-0.00107861763707504,0.00210779917882676,-7.07522220856796e-05,1.54429011926432e-05
-0.00108696228784098,0.00209667695144874,-7.60844949235255e-05,2.97216905064761e-06
-0.00109559304091889,0.00207926047320726,-8.85351869482936e-05,-1.39779938433457e-05
-0.00110734707756919,0.00206098568802987,-0.000104377635636124,-2.9868697677337e-05
-0.00111378437958863,0.00205342781862186,-0.000105775037567251,-3.94518539418888e-05
-0.00108169323692878,0.00205622923709328,-8.11185174243722e-05,-3.77597938491018e-05
-0.00104494101076967,0.00206763756678328,-4.24571767843461e-05,-2.32306089944359e-05
-0.00101667648653248,0.00208847535183879,-1.30054734337821e-05,-2.33979772000268e-06
-0.000997602999067485,0.00210682166259418,-1.26862670805274e-06,1.37026687532557e-05
-0.000994265138761111,0.00211155427167143,3.52486578072011e-06,1.90468701400045e-05
-0.000986909925157423,0.00210547459754196,1.44559829641987e-05,1.60486477361208e-05
-0.00096228128446825,0.0020977975188373,3.48135962078392e-05,7.04448645362792e-06
-0.00093116765804098,0.00208220494283467,5.84011913588507e-05,-1.02140393948528e-05
-0.00092569595132446,0.00205641997196793,7.13463450325436e-05,-3.48545444575761e-05
-0.00094287401097262,0.00203100454992083,5.89393861028382e-05,-5.641508109085e-05
-0.000960278568284426,0.00202835810353506,2.51585068168446e-05,-6.28364416325841e-05
-0.000986576139126786,0.0020389915727968,2.88980492345829e-06,-5.25947555155502e-05
-0.00097523933501478,0.00205460799065876,2.78846883379981e-05,-3.35781588109781e-05
-0.000889301353055319,0.00207564843151858,9.99336643294547e-05,-1.23996147960331e-05
-0.00080109839445939,0.00209887040250721,0.00018372874464843,8.87986334591788e-06
-0.000748598620211996,0.00211675179700564,0.000249321559070198,2.69062244556238e-05
-0.000700020831824591,0.00212318909902508,0.000294307739698526,3.57921691249315e-05
-0.000665867368332587,0.00212049496892065,0.000322094873407344,3.40549507404425e-05
-0.000671911279673056,0.0021175624202229,0.000320940758203738,2.75813876883193e-05
-0.000713801426518048,0.00211088669961016,0.000280735844279828,2.27956774909993e-05
-0.000777912186259758,0.00210562956962762,0.000215897074289438,2.03304201066405e-05
-0.000842618992484748,0.00210495007663668,0.000152104188009186,1.77684964668432e-05
-0.000896823459674326,0.00210322154183516,9.70255142523369e-05,1.50453231930432e-05
-0.000954473075537269,0.0020997406303728,4.10323295535776e-05,1.34250984509596e-05
-0.00101908451432493,0.00209609282589512,-1.80916804781973e-05,1.10108717483475e-05
-0.0010673285166817,0.00208977473317234,-6.96318318458135e-05,3.3982557338018e-06
-0.00110585696136099,0.00207601798033821,-0.000108985909260057,-1.05553054728888e-05
-0.0011483312337596,0.00205965054390732,-0.000144566941014755,-2.58975090680462e-05
-0.00118556029710533,0.00204901707464558,-0.000180152376399397,-3.57576667882954e-05
-0.00120626695193451,0.00204703820032109,-0.000203438734982845,-3.76240659502916e-05
-0.00120509870082728,0.00205169928382035,-0.000200304281149018,-3.45790430163677e-05
-0.00118461854366175,0.00205472719995542,-0.000173152687533935,-3.05277629193562e-05
-0.00114971406160081,0.00205732596262252,-0.000138764735732508,-2.54915267433545e-05
-0.00112316615123547,0.00206779253886894,-0.000112337738981664,-1.67759227611665e-05
-0.0011114717192335,0.00208288443582561,-9.67662792630069e-05,-4.07696254361452e-06
-0.0011004090965038,0.00209128869123987,-8.24271457034413e-05,8.78899819683654e-06
-0.00107426649774709,0.00210059893730872,-5.51222871757856e-05,1.78320073989636e-05
-0.0010312319416542,0.00210870516948135,-1.06462436992716e-05,2.25856671830782e-05
-0.00098847156694362,0.00210912240201964,3.53041247394735e-05,2.50490264992133e-05
-0.000966978130756505,0.00210990918337757,5.86045498045999e-05,2.73230081882688e-05
-0.00097570425127174,0.00211511862964145,5.25389096461629e-05,3.15245013089076e-05
-0.000995481073587005,0.0021236301734227,3.53005783827517e-05,3.8780885217911e-05
-0.00100640064516071,0.00212941182431053,2.60087908688343e-05,4.56609177025748e-05
-0.00101151472398726,0.00212757600114202,2.10231406428396e-05,4.50262521449038e-05
-0.00103484398334288,0.00211830151786217,3.96764900984747e-06,3.46722737631873e-05
-0.00106639868416778,0.00210640443005588,-2.61536343920454e-05,2.21255275035539e-05
-0.00108871466450183,0.00209902537459286,-5.07426259016002e-05,1.50863631032856e-05
-0.0010985017477573,0.00209153903076285,-5.64091536684063e-05,9.48832639305796e-06
-0.00109871632449128,0.00207878363602064,-5.09292350892376e-05,-4.93492540062146e-06
-0.0010946512874753,0.00205734980448185,-4.84304869168971e-05,-2.73772770518853e-05
-0.00109419829214801,0.00203942072626476,-4.8999967674743e-05,-4.37624524820005e-05
-0.00109273201779914,0.00203669083337133,-4.30906242310418e-05,-4.52077928261304e-05
-0.00108447081354086,0.00204474938182529,-3.02808011708319e-05,-3.98336686718964e-05
-0.00107260948852357,0.00204477322368462,-2.09407935077363e-05,-3.97892798392582e-05
-0.00106897360497556,0.00203847897282117,-1.8309369912949e-05,-4.37618525924354e-05
-0.00106468207029593,0.00204125654943326,-9.60551227254012e-06,-4.13294467523277e-05
-0.00104006535053643,0.00205515635342338,1.87920598408325e-05,-3.0272824652201e-05
-0.000993204176020871,0.00206424010182858,6.2187053304397e-05,-1.92630270794069e-05
-0.000954043922069306,0.00206778061793927,9.93558170844468e-05,-1.42145019747857e-05
-0.000948095378166162,0.00207232249214187,0.000111547453495225,-1.15879997151206e-05
-0.000965142307587999,0.0020780683802407,9.55088536724703e-05,-6.93111153422555e-06
-0.000995838701476973,0.00208126318939109,6.01322971071642e-05,-1.84662733594896e-06
-0.00103905207151485,0.00208286059396628,1.76933479310006e-05,9.35711349360895e-07
-0.00107865339986404,0.00208779585884785,-1.90137128163745e-05,3.08000810879549e-06
-0.00109766728268071,0.00209280264930741,-3.76884940836162e-05,7.22063852580896e-06
-0.00109121805973161,0.00209321988184571,-3.36597909729031e-05,1.25775664483131e-05
-0.00107146507927567,0.00210131419308866,-1.69203596578181e-05,1.74771981659762e-05
-0.00106369263313369,0.00210814488578706,-5.09721217908846e-06,2.22476022862624e-05
-0.0010646939912256,0.00210908663923065,-5.47592426764684e-06,2.62910375456659e-05
-0.00106341845175138,0.0021077157323191,-9.03986913101797e-06,2.61707793713244e-05
-0.00105863815895546,0.00210596335565825,-6.83839136997622e-06,2.04337638086084e-05
-0.00106185680996518,0.00209757102117366,-5.27258135528736e-06,1.32128436779243e-05
-0.00107035643281677,0.00209152710983319,-1.4882584961836e-05,9.3572521756789e-06
-0.00107750899061614,0.00209171784470784,-2.81949013746664e-05,8.83989168545374e-06
-0.00107375389777147,0.00209500802129555,-2.40765540580514e-05,9.57930649119054e-06
-0.00104851728966935,0.00209614050961378,3.00543735308268e-06,1.25450485525029e-05
-0.00101641422607983,0.00210125458844033,3.28018370301102e-05,1.92255530148182e-05
-0.00100218063605908,0.00210986149965891,4.51481104287204e-05,2.62352298835024e-05
-0.00100107198960018,0.00211355698785525,4.15020368278125e-05,2.7847910252319e-05
-0.00101565128658124,0.0021053911510343,3.01147516272523e-05,2.3442740364971e-05
-0.00104087597375369,0.00210131419308866,5.38336895581257e-06,1.81309578662979e-05
-0.00107909447426167,0.00210047972801207,-3.92031688426454e-05,1.61556284877084e-05
-0.00112457282093601,0.00210120690472167,-8.7887279254621e-05,1.72194401885135e-05
-0.00115747458681313,0.00210211289537626,-0.000115813342750045,1.87189664208635e-05
-0.00116277940051433,0.0021001578629111,-0.000122307454014871,1.76993850056946e-05
-0.00116055018666686,0.0020959974584578,-0.000127981423580255,1.0946048324178e-05
-0.00117083794896829,0.00208114398009443,-0.000138164991753694,-2.66168458058304e-06
-0.00117049224200799,0.00206365597627497,-0.000134069240534776,-1.93735468823117e-05
-0.00114105946666357,0.00205018532575281,-0.000106598630774285,-3.35123417136735e-05
-0.00110005146861383,0.00204123270757393,-7.39120661108193e-05,-4.32844473145561e-05
-0.00108239657177905,0.00203410399163389,-5.19568752486341e-05,-5.02463278160038e-05
-0.0010586262380258,0.00202946674999396,-2.89723953102196e-05,-5.35103055300226e-05
-0.0010164261470095,0.00203520071716313,1.2248669687893e-05,-4.94204862716407e-05
-0.000962150154241929,0.00204687130730577,6.28378190693717e-05,-3.79588767263261e-05
-0.000923311765391336,0.00205929291601735,9.9550591190816e-05,-2.45795299092439e-05
-0.000908815914917941,0.00207129729219063,0.000117894103341852,-1.35692268501125e-05
-0.000893342548211965,0.00208053601268148,0.000133309324433029,-3.94191280855953e-06
-0.000863289884524934,0.0020902038866403,0.000155134597492258,5.38516694518913e-06
-0.000842869332007726,0.00209682000260472,0.000177844030716026,1.06959120054528e-05
-0.000831472923247392,0.00209215891910547,0.000194782756567806,8.10312041593557e-06
-0.000816214133275398,0.00208629382170998,0.000203615478864058,4.93638254172971e-07
-0.000818097640162566,0.00208176386843704,0.000199508873172663,-4.63112201206351e-06
-0.000842464020399095,0.00208245528235765,0.000177933582763476,-3.23075978938062e-06
-0.00087778573499833,0.00208891642623642,0.00014415485255331,2.90321439306035e-06
-0.000910389477633803,0.00209747565373633,0.000108002048139842,1.08480980042658e-05
-0.000945913848037353,0.00210673821608652,7.11084426920188e-05,1.96302888567456e-05
-0.000989115297145563,0.00211585772728072,3.07376319407946e-05,2.83711183979546e-05
-0.00102711922091956,0.00212129367120824,-7.86591581503343e-06,3.48405726526894e-05
-0.0010551572474931,0.00212543023380221,-3.68931768418104e-05,3.71452582282078e-05
-0.00107808119524009,0.00212360633156337,-6.06482650354583e-05,3.47284155471991e-05
-0.00110926634724536,0.00211472523896249,-9.00643717534198e-05,2.68686990776182e-05
-0.00114294297355074,0.00210071814660538,-0.000124430793613141,1.25481261215719e-05
-0.00117038495364099,0.00208412421251084,-0.000152748295162569,-6.43365768472233e-06
-0.00119063861314288,0.00206561100874013,-0.000170056850747133,-2.38181016643146e-05
-0.00119320161302099,0.00205628884174161,-0.000175721022660056,-3.29581780001601e-05
-0.00117555863711587,0.0020576120649345,-0.000158692460700479,-3.28634254594267e-05
-0.00112938887652092,0.00206331026931466,-0.000106426120516691,-2.85903935485712e-05
-0.00105018621982254,0.00206594479477076,-3.14655687839816e-05,-2.48211419613749e-05
-0.000984406529927643,0.00207006943643507,3.22397209921133e-05,-2.03928623024461e-05
-0.000953340587219035,0.00208220494283467,6.69017818287365e-05,-1.09903279270079e-05
-0.000937461908904428,0.0020963074026291,8.60047732086693e-05,3.21134380235047e-06
-0.000914931351836404,0.00210670245329752,0.000103656957680399,1.5329672869641e-05
