BCL,BCC,BCL_Filtered,BCC_Filtered
-,-,-,-
-0.000655865708343131,0.00571589503979057,3.75678019232122e-20,6.82519220967509e-21
-0.0006622910894329,0.00571711097461647,-5.28025156537002e-06,3.93051893242044e-06
-0.000668072740320727,0.00571746860250643,-9.39396471078072e-06,6.71999904222745e-06
-0.000671947042462053,0.00571693216067148,-1.20872988250835e-05,8.72065019167911e-06
-0.000675761739955052,0.00571734939320978,-1.43921168228791e-05,1.18735824422759e-05
-0.000679922144408354,0.00572065149072716,-1.76769099813041e-05,1.73754830030642e-05
-0.000685739558085177,0.0057231310440976,-2.19247782028857e-05,2.31120429176385e-05
-0.000690949004349053,0.00572295223015262,-2.5400535038421e-05,2.50052219649325e-05
-0.000692462962416587,0.00571780238853707,-2.65163177296041e-05,2.15797656880002e-05
-0.000693094771688865,0.00570772920296962,-2.56157537394978e-05,1.55652958167588e-05
-0.00069367889724248,0.00570048127773292,-2.43746482576382e-05,1.01980587649381e-05
-0.000693583529805155,0.00569484267800109,-2.3837652616972e-05,5.98507847227272e-06
-0.000694596808826733,0.005688178878318,-2.36480002814457e-05,2.46978512785163e-06
-0.000695240539028677,0.00568333898087376,-2.28017455286213e-05,9.43255689672916e-07
-0.000694084208851111,0.00568462644127765,-2.03996383387055e-05,3.0494431772318e-06
-0.000689721148593494,0.00568754706904573,-1.59811289194365e-05,8.14329003652488e-06
-0.000685799162733505,0.00569000278055684,-1.00801153324984e-05,1.43866188599207e-05
-0.000681161921093578,0.00569589171981166,-4.45163202303196e-06,2.13218827271573e-05
-0.00067753795847523,0.00570173297534781,-8.85039995039726e-07,2.90179310687485e-05
-0.000678074400310183,0.00570577417050446,4.18190624806884e-07,3.58589735673599e-05
-0.000678384344481489,0.00570824180294524,7.42027883895612e-07,4.00458953803381e-05
-0.000678229372395836,0.00570896897965485,1.21256770147481e-06,4.25853777779738e-05
-0.000678765814230788,0.00571017299355107,2.032983179666e-06,4.57001099900413e-05
-0.000677657167771886,0.00571088824933101,3.3269817408414e-06,4.84747322760209e-05
-0.000676238577141677,0.00570868287734287,5.64001024010443e-06,4.73410718449542e-05
-0.000673496763318584,0.00570026670099894,9.06723765989145e-06,4.13651283170806e-05
-0.000670087377434216,0.00569142137118705,1.26407362404057e-05,3.38845442081112e-05
-0.000668156186828386,0.00568462644127765,1.52118188924542e-05,2.77547501027146e-05
-0.000667595903134102,0.00567613873935573,1.64790988480508e-05,2.18408172840972e-05
-0.000667381326400121,0.0056672695676845,1.67112682991196e-05,1.3954900099751e-05
-0.000668442289140361,0.00565756593093669,1.60189583641334e-05,4.78590320508885e-06
-0.000670313875097863,0.0056471589593386,1.44364305996337e-05,-3.56788884651366e-06
-0.000672960321483631,0.00563867125741668,1.21968235222069e-05,-1.14521304517006e-05
-0.000676000158548364,0.00562766823933531,9.33504721460282e-06,-2.12654349940343e-05
-0.000679242651417413,0.00561499629110076,5.54725423013995e-06,-3.34576527410358e-05
-0.000684464018610955,0.00560193095218724,1.14325318822789e-06,-4.52021342138236e-05
-0.000688147585877632,0.00559299025493802,-2.42143306902066e-06,-5.37815639641836e-05
-0.000688898604446566,0.00558625492967695,-3.96422076441949e-06,-5.995234237508e-05
-0.000689494650929847,0.00557855400911295,-4.23897960972147e-06,-6.67303265028788e-05
-0.000690436404373431,0.00557051930251833,-5.10830385279706e-06,-7.49847751906218e-05
-0.000692307990330934,0.00556336674471895,-7.11892937022201e-06,-8.12596691080311e-05
-0.000693643134453483,0.0055636290051716,-8.99724259430936e-06,-8.07692064763554e-05
-0.000693810027468802,0.00557266506985814,-9.6334227551009e-06,-7.20999611777392e-05
-0.00069425110186643,0.00558649334827026,-9.27848616983585e-06,-5.76348920198467e-05
-0.000692176860104612,0.005604648924151,-8.28261339993936e-06,-3.95736148614157e-05
-0.000689280074195866,0.00562633309521276,-5.99406030037081e-06,-1.82500929662414e-05
-0.000685596506929189,0.00564847026160182,-2.12432491472771e-06,4.04736807791747e-06
-0.000681638758280203,0.00566564832124998,1.54724011538916e-06,2.05278401176109e-05
-0.000680005590916013,0.00566966567454729,2.35487114585561e-06,2.51595967071481e-05
-0.00068216327918549,0.005665397981727,-2.19777886543587e-07,1.96566561791085e-05
-0.000685405772054539,0.00565754208907736,-3.69506950363427e-06,1.11821270887121e-05
-0.000686264078990464,0.00564864907554681,-5.15576803788428e-06,3.03918217665916e-06
-0.000685191195320558,0.00563896928065832,-4.12924481887778e-06,-7.83395487922028e-06
-0.00068235401406014,0.00562571320687015,-2.64356964388145e-06,-2.27921112154354e-05
-0.000682389776849137,0.00561138424941207,-2.86653681438426e-06,-3.58762048047617e-05
-0.000684869330219586,0.00560843977978467,-4.99096329303316e-06,-4.00401048396869e-05
-0.000685584585999524,0.00561440024461748,-7.20723151162631e-06,-3.58917347331335e-05
-0.00068532232554688,0.00561999116063065,-7.51053214664398e-06,-2.9889653139848e-05
-0.000683414976800381,0.00562500987201988,-5.59571568993178e-06,-2.55029062571921e-05
-0.000680589716469629,0.00563145909496898,-3.02300188611755e-06,-2.06497571060764e-05
-0.000677990953802523,0.00563914809460331,-1.47898244854648e-06,-1.34630404174182e-05
-0.000676667730609639,0.00564674172680031,-1.0569166311032e-06,-5.95705531799773e-06
-0.000676763098046964,0.00565439496364563,-5.11940235996895e-07,-5.03342696602218e-07
-0.000674581567918156,0.00565816197741997,9.84843683385153e-07,4.08946938593354e-06
-0.000671398679697435,0.00566698346537253,2.89004800400007e-06,1.08404823092876e-05
-0.000670182744871541,0.00567731891139262,4.1802431656524e-06,2.07100277804834e-05
-0.000669884721629901,0.00568912063176159,4.62864706230287e-06,3.21918286347596e-05
-0.000668787996100664,0.0057015303195435,4.66279588871356e-06,4.35572700532424e-05
-0.000669229070498292,0.00571311746317848,4.1193026319864e-06,5.37718226236416e-05
-0.000670874158792148,0.00572071109537548,1.85215378708104e-06,6.17273296481403e-05
-0.000675880949251708,0.00572655235091164,-2.83972774625596e-06,6.61744163553833e-05
-0.000681030790867256,0.00572768483922987,-8.48495896843664e-06,6.67939199986248e-05
-0.000683784525620015,0.00572658811370063,-1.18298619404667e-05,6.47073929813895e-05
-0.000682520907075459,0.00572334562083159,-1.05296685362331e-05,6.16805369816671e-05
-0.000677442591037905,0.00572197471392004,-5.30689564712133e-06,5.90274323078059e-05
-0.000670635740198835,0.00572090183025013,9.73905146665503e-07,5.72022837272507e-05
-0.000665724317176599,0.00571945939776059,6.09331560732495e-06,5.59500863336314e-05
-0.000661456624356307,0.005718624932684,9.65339586609378e-06,5.44621898088514e-05
-0.000660193005811751,0.0057167175839375,1.17498341662977e-05,5.16121048512598e-05
-0.000659966508148104,0.00571219955159423,1.17749858437578e-05,4.67447730388089e-05
-0.000662040749909922,0.00570554767284081,9.15512947875278e-06,4.05064328081071e-05
-0.000667250196173799,0.00570014749170229,4.47905930795013e-06,3.42551722190825e-05
-0.000672662298241991,0.00569497380822741,-7.14179847085617e-07,2.82174389569249e-05
-0.000676679651539305,0.00568760667369405,-4.62052611945577e-06,2.1088304976968e-05
-0.000677084963147936,0.00567842755785153,-5.25518306877259e-06,1.22822560010032e-05
-0.000673294107514268,0.00567034516753824,-1.00126434386142e-06,3.52322281381569e-06
-0.000664818326522012,0.0056650522747667,7.84947520286365e-06,-3.27697102971056e-06
-0.000654184857260278,0.00565766129837401,1.87890099172496e-05,-8.77292277156081e-06
-0.000643622913576538,0.0056521180660795,2.92864795511302e-05,-1.47355406963986e-05
-0.000634503402382338,0.00564746890350991,3.86027607419104e-05,-2.05403968479109e-05
-0.000627672709683937,0.00564423833157053,4.65708475364762e-05,-2.3857154624171e-05
-0.000622320212264074,0.00564212832701971,5.17447784654333e-05,-2.4816467146758e-05
-0.000622022189022433,0.00564017329455455,5.22578650613507e-05,-2.65013711900572e-05
-0.000627183951567647,0.00563801560628507,4.75232193810886e-05,-3.08079509632157e-05
-0.000638341941734668,0.00563081536476704,3.73861165196412e-05,-3.69182404879605e-05
-0.000654852429321553,0.00562171969543217,2.09839087974726e-05,-4.45038364741579e-05
-0.000676286260860339,0.00561316046793225,-6.09181579947077e-07,-5.44779418341734e-05
-0.000697922748203441,0.00560323033352079,-2.12541897353338e-05,-6.4806227322299e-05
-0.000710868877820306,0.00559750828728129,-3.31853511264109e-05,-6.98434757764743e-05
-0.000712180180083524,0.00559862885466986,-3.48682182996544e-05,-6.72896417782689e-05
-0.000710129780181037,0.0056049588683223,-3.26119894081792e-05,-6.26597791646558e-05
-0.000711929840560546,0.00560466084508066,-3.29188620640941e-05,-6.29298943134256e-05
-0.000715088886921935,0.00559788975703059,-3.58128392548944e-05,-6.80189426736162e-05
-0.000716173691521507,0.00559463534323188,-3.73569422110093e-05,-7.23481711809763e-05
-0.00071583990549087,0.00559382472001461,-3.5838145150548e-05,-7.25652933199177e-05
-0.000713396114909417,0.00559685263614968,-3.25919887169103e-05,-6.93028102685475e-05
-0.000709366840682437,0.00560421977068304,-2.86940741148676e-05,-6.30499072989709e-05
-0.000704908412987495,0.00561181340288004,-2.41709620633061e-05,-5.33742864676577e-05
-0.000701975864289752,0.00562372241161599,-1.96726496455394e-05,-4.17622419339857e-05
-0.000698006194711101,0.00563625130869456,-1.60240777096286e-05,-3.06879305784292e-05
-0.000694561046037736,0.00564603839195003,-1.246998170716e-05,-1.9926226058876e-05
-0.00069098476713805,0.00565639767982946,-7.88171328514282e-06,-7.73309978983541e-06
-0.000686788599895751,0.00567071471635787,-3.45836890439719e-06,4.84270988964436e-06
-0.000685071986023902,0.00568162236700191,-1.79128954208743e-06,1.52467772363987e-05
-0.000687086623137392,0.00568914447362092,-3.24445586975218e-06,2.46341839022736e-05
-0.000689590018367172,0.00570135150559851,-5.45210809224195e-06,3.68821468755556e-05
-0.000690949004349053,0.00571763549552175,-6.3559277806286e-06,5.21787313912444e-05
-0.000689852278819816,0.00573189292740184,-5.50409220292083e-06,6.65582136273975e-05
-0.000687098544067057,0.00574249063387457,-2.42230872041406e-06,7.82524164155269e-05
-0.000681746046647194,0.00575351749381527,3.58772836829304e-06,8.90116319719379e-05
-0.000673842470278887,0.00576241050734583,1.13382869240646e-05,9.79559330947942e-05
-0.000667059461299149,0.00576520000488758,1.78042941143541e-05,0.000100093187716977
-0.000664150754460737,0.00575791631686189,2.13289035751634e-05,9.36634248866073e-05
-0.000662815610338188,0.00574741397782647,2.29895519364989e-05,8.3895735781975e-05
-0.000661361256918982,0.00574079786186205,2.39979747216677e-05,7.6239034379106e-05
-0.000661206284833329,0.00573507581562256,2.3691648400669e-05,7.00317492127509e-05
-0.000665056745115324,0.00572501455098477,2.11665280753282e-05,6.18293159385785e-05
-0.00066833500077337,0.00571475063054267,1.70994866959782e-05,5.07864120228065e-05
-0.000672137777336703,0.00570193563115213,1.26339468423645e-05,3.75590293967404e-05
-0.000677931349154195,0.00568649802723515,7.8913796275478e-06,2.21496983833567e-05
-0.000682342093130475,0.00566999946057793,2.83779496734787e-06,6.59303666674238e-06
-0.000686454813865114,0.00565953288433152,-1.66071687789951e-06,-4.18296572967332e-06
-0.000690054934624132,0.00565632615425146,-4.87878174562324e-06,-8.3094307061035e-06
-0.000691795390355312,0.00565351281485038,-7.17865525023309e-06,-1.02787689998118e-05
-0.000693249743774518,0.0056491378336631,-8.79724760014101e-06,-1.41903634765215e-05
-0.000693512004227162,0.00564738545700225,-8.91004906731617e-06,-1.72762519356608e-05
-0.000691068213645709,0.00564911399180376,-7.16354904342505e-06,-1.47138524445078e-05
-0.000688803237009241,0.00565619502402514,-4.99623700042491e-06,-7.49338490722787e-06
-0.000687921088213985,0.00566378865622214,-4.04426936235663e-06,-6.30006724937542e-07
-0.000687289278941708,0.00566728148861417,-4.19705188824011e-06,2.99011069593487e-06
-0.00068771843240967,0.00566540990265667,-4.58716571717499e-06,1.56325319757346e-06
-0.000688505213767601,0.00565501485198825,-5.476007599447e-06,-8.84937037819058e-06
-0.000689518492789179,0.00563675198774051,-7.49638256467637e-06,-2.89169014421448e-05
-0.000692284148471603,0.00561393532836052,-9.78108507042139e-06,-4.96841621958281e-05
-0.000692772906587893,0.00560358796141076,-1.06875949651625e-05,-6.00627051900255e-05
-0.000691294711309356,0.00560560259852425,-1.01395027511845e-05,-6.06715518831507e-05
-0.000690972846208384,0.0056015614033676,-9.6808458617713e-06,-6.27182583988207e-05
-0.000691843074073975,0.00559122595734751,-1.0276524146222e-05,-7.26070214899694e-05
-0.000691509288043337,0.00558054480436711,-1.1377908801514e-05,-8.52082251369571e-05
-0.000692296069401268,0.0055719498140782,-1.20769501513323e-05,-9.35927275781498e-05
-0.000692665618220902,0.00556674036781432,-1.1927825804338e-05,-9.7277146331125e-05
-0.000690066855553797,0.00556807551193687,-1.06624593135432e-05,-9.77544086050081e-05
-0.000687420409168029,0.00557204518151553,-8.25374798667406e-06,-9.34571035264415e-05
-0.000685119669742564,0.00558127198107672,-5.2116919248976e-06,-8.38172352758525e-05
-0.000680279772298322,0.00559349093398398,-1.72338870419618e-06,-7.19908212662606e-05
-0.000675356428346421,0.0056076649193564,3.27170274993038e-06,-5.82166843425626e-05
-0.000667858163586745,0.00562918219740285,1.0699320642681e-05,-3.61407187805824e-05
-0.000659334698875826,0.0056631806888092,1.89447936132636e-05,-2.35720578895889e-06
-0.000653588810776997,0.00570024285913961,2.43829550062207e-05,3.45506269130037e-05
-0.000652313271302776,0.00572775636480786,2.49837830273207e-05,6.17877407565617e-05
-0.000655639210679484,0.00574176345716497,2.23488902356576e-05,7.67593068296374e-05
-0.000658011475682942,0.00575178895901376,1.9541367900131e-05,8.65512236841921e-05
-0.000658476391939902,0.0057607534981223,1.78061263081388e-05,9.45061167015389e-05
-0.000661325494129985,0.00576022897721702,1.6162299276235e-05,9.54969976327443e-05
-0.000663518945188459,0.00575006042421224,1.34825343392485e-05,8.5847254314821e-05
-0.000666177312503893,0.00573654208997143,9.98550787177183e-06,7.05551829857009e-05
-0.000669682065825585,0.00572061572793816,6.80905115964984e-06,5.68591717446602e-05
-0.000671756307587403,0.00570973191915345,4.74588365431238e-06,4.55934562329432e-05
-0.000672590772663997,0.00569735799416053,3.52664297381886e-06,3.32849611349977e-05
-0.000673759023771228,0.00568233762278185,2.20719234628795e-06,1.95346180586409e-05
-0.000675606767869399,0.00567079816286553,2.97784549276625e-07,7.538424091292e-06
-0.000677216093374258,0.00566084418659474,-1.58885125119302e-06,-1.36628109254065e-06
-0.000678455870059482,0.00565234456374315,-2.50524350685401e-06,-9.3114752945076e-06
-0.000677907507294864,0.00564268861071399,-2.46847208640296e-06,-1.78554028367148e-05
-0.000677597563123558,0.00563530955525098,-2.47783644362575e-06,-2.56000650995823e-05
-0.000678610842145135,0.00562890801602054,-3.1973371251511e-06,-3.0728929344691e-05
-0.000679671804885376,0.00562453303483325,-4.21316578095102e-06,-3.3514755187714e-05
-0.000679564516518385,0.00562260184422742,-4.82185737537568e-06,-3.50554744036246e-05
-0.000679671804885376,0.00562255416050876,-4.96998777087325e-06,-3.51819944614142e-05
-0.000680017511845679,0.00562251839771976,-4.96078863123916e-06,-3.29143163012552e-05
-0.00067927841420641,0.00562633309521276,-4.63880679183104e-06,-2.77178044251141e-05
-0.000677740614279545,0.00563509497851699,-3.48314773627374e-06,-1.89473747199606e-05
-0.000675725977166055,0.00564768348024389,-1.47552131819309e-06,-5.27765485909675e-06
-0.000673687498193234,0.00566389594458913,5.6094477191504e-07,1.32583614114566e-05
-0.000672209302914697,0.00568273101346081,1.60944094889003e-06,3.30886302719177e-05
-0.000672650377312325,0.00569824014295579,1.25970636116049e-06,4.91803953533761e-05
-0.000673389474951594,0.00570710931462701,-1.25598399108645e-07,5.97858984284313e-05
-0.000674784223722471,0.00571312938410815,-1.76104474217189e-06,6.74147320683291e-05
-0.000676500837594321,0.00571899448150363,-2.82352329135898e-06,7.44897258513989e-05
-0.000675225298120099,0.00572229657902101,-2.74098244710117e-06,7.97968743015844e-05
-0.000673437158670256,0.00572271381155931,-1.46318582933245e-06,8.02906897098194e-05
-0.000672113935477372,0.00571526323051829,4.70074063083159e-07,7.48492967276347e-05
-0.000669741670473914,0.00570215020788611,2.32514206297359e-06,6.48882970935178e-05
-0.00066746477290778,0.00569016967357216,3.74387724414607e-06,5.26138162891239e-05
-0.000666189233433558,0.00567773614393092,4.79057147166409e-06,4.0193641412372e-05
-0.000665307084638303,0.00566210780513929,5.42088838042739e-06,2.93315343856211e-05
-0.000665974656699577,0.00565174851725987,5.21670263608394e-06,1.9695105377725e-05
-0.000665342847427299,0.00564202103865272,3.83922589591982e-06,8.65087941918575e-06
-0.000667870084516411,0.00562497410923088,1.44164924450116e-06,-5.49883019051754e-06
-0.000671398679697435,0.00560621056593719,-1.65582610188959e-06,-2.07878230185418e-05
-0.000674021284223871,0.0055943850037089,-5.38010767478202e-06,-3.40174417753174e-05
-0.000677275698022586,0.00558302435773756,-9.57638175688309e-06,-4.49220880371979e-05
-0.000681090395515585,0.00556880268864648,-1.35720833549009e-05,-5.54345951610463e-05
-0.000684487860470287,0.00555838379611872,-1.66649019869677e-05,-6.55649823405869e-05
-0.000685250799968886,0.00555114779181169,-1.8910969731842e-05,-7.30548783843165e-05
-0.000686883967333076,0.00554598602926648,-2.08597911043827e-05,-7.70956462768131e-05
-0.000687944930073317,0.00554167065272752,-2.26439178505952e-05,-7.93961101456897e-05
-0.000689756911382491,0.00553971562026236,-2.39795881777469e-05,-8.11679851248846e-05
-0.000688993971883891,0.00553967985747336,-2.49516820812843e-05,-8.17960419955675e-05
-0.0006900310927648,0.0055397036993327,-2.59645314707339e-05,-8.06742625946253e-05
-0.000689876120679147,0.00554173025737585,-2.67468668009833e-05,-7.70270528755839e-05
-0.000689446967211185,0.00555280480103521,-2.60681796865405e-05,-6.73991038813495e-05
-0.000684905093008583,0.00557265314892847,-2.26576970630812e-05,-4.75790334246214e-05
-0.000677490274756567,0.00559971365926943,-1.60248714964195e-05,-1.92119743329672e-05
-0.000668120424039389,0.0056285742299899,-6.6270840752532e-06,8.99436860702599e-06
-0.000656926671083371,0.00565038953127799,3.96807180599234e-06,2.95347289684816e-05
-0.000646972694812578,0.00566332373996518,1.33143081291482e-05,4.30050260083874e-05
-0.000639939346309861,0.00567494664638916,1.96906473622837e-05,5.41682745882335e-05
-0.000635623969770906,0.00568621192492318,2.36857891239146e-05,6.40841612919069e-05
-0.000631976165293227,0.00569253001764596,2.71511475196493e-05,6.979640431124e-05
-0.000628006495714575,0.00569319758970723,3.04754614623483e-05,6.96334726667191e-05
-0.000625634230711116,0.00568919215733958,3.2222500890006e-05,6.4532443633305e-05
-0.000625991858601085,0.00568110976702629,3.17718341183395e-05,5.51507602659129e-05
-0.000626826323677678,0.00566933188851666,3.06466375315705e-05,4.18232110590319e-05
-0.000626993216692997,0.00565582547520551,3.01916565999506e-05,2.70872112306634e-05
-0.000627374686442297,0.00564429793621885,2.91803377677514e-05,1.42671728650615e-05
-0.000631415881598942,0.00563551221105529,2.49820307363878e-05,3.06514485618576e-06
-0.000640261211410833,0.00562359128138967,1.64017153174932e-05,-1.01267510747424e-05
-0.000651764908538157,0.00560882124953397,4.52944450706114e-06,-2.69678147625532e-05
-0.000663590470766453,0.00559226307822842,-8.29617569200728e-06,-4.52485764242848e-05
-0.000675869028322043,0.00557730231149806,-1.941321984402e-05,-6.25514999564285e-05
-0.00068254474893479,0.00556452307489652,-2.66750201216251e-05,-7.8096841302408e-05
-0.000685095827883233,0.00555356774053381,-2.95149537630617e-05,-8.94695167900525e-05
-0.000684464018610955,0.00555585655902961,-2.86374341929511e-05,-9.10672056528165e-05
-0.000680184404860997,0.00557055506530732,-2.42033451357196e-05,-7.90129924208263e-05
-0.000671708623868741,0.0055935863014213,-1.57185595816204e-05,-5.65185962337481e-05
-0.000660491029053392,0.00562111172801922,-4.53859096502214e-06,-3.22643463383735e-05
-0.000650775471375911,0.00564388070368056,5.57551502279734e-06,-1.37004246823268e-05
-0.000644016304255504,0.00565484795897293,1.23385100729746e-05,-2.50664033429163e-06
-0.000639069118444271,0.00566489730268105,1.76851038991248e-05,4.53248940820163e-06
-0.00063281063036982,0.00567594800448108,2.40988032692711e-05,1.11033247092524e-05
-0.000627625025965275,0.00568281445996847,2.95457516773387e-05,1.70761735636019e-05
-0.000628376044534209,0.0056855801156509,2.93578335424747e-05,1.83872495686586e-05
-0.000634813346553644,0.00568372045062306,2.275921628985e-05,1.21961087012649e-05
-0.000644493141442128,0.00567559037659111,1.40847759997309e-05,1.66219993108739e-06
-0.000651681462030498,0.00566818747926876,7.04893754023769e-06,-6.62643153722621e-06
-0.000657725373370968,0.00566732917233283,1.03964705768391e-06,-9.91877822737046e-06
-0.000665438214864624,0.00567014251173392,-5.80471306898914e-06,-1.11309954194786e-05
-0.000673103372639619,0.00566939149316499,-1.28347126760235e-05,-1.30379319812897e-05
-0.000678229372395836,0.00566889081411903,-1.79728439171643e-05,-1.44615636584298e-05
-0.0006809115815706,0.00567287240462735,-2.0240525992497e-05,-1.40225612417631e-05
-0.000680887739711269,0.00567578111146576,-1.93472216866578e-05,-1.3446593297389e-05
-0.000676977674780945,0.00567674670676867,-1.4717736214025e-05,-1.29839199538888e-05
-0.000668692628663339,0.00568571124587722,-6.91501231368308e-06,-6.25953209207529e-06
-0.000661218205762995,0.00570853982618688,1.55749671918992e-06,1.45393650586246e-05
-0.000654900113040215,0.00574359928033348,8.79687390813307e-06,4.77445929034292e-05
-0.000648224392427468,0.00577710901362354,1.53749364226897e-05,8.0643363352279e-05
-0.000641846695056361,0.00579911504978627,2.18004789299164e-05,0.000100669801437772
-0.000639283695178252,0.0058052424076344,2.58855369393534e-05,0.000106041577367886
-0.000639295616107918,0.00580579077039902,2.52920552417406e-05,0.000104291893300429
-0.000643920936818179,0.0058040622355975,2.1450526067977e-05,0.000102586783519314
-0.000647950211045158,0.00580363308212954,1.78987363780283e-05,0.000101364347778511
-0.000650298634189286,0.00580019985438584,1.53169945842515e-05,9.63524491885884e-05
-0.000655067006055534,0.00578944717582745,1.13825742502724e-05,8.47934748401674e-05
-0.000661087075536673,0.00577358041844251,5.51615299496253e-06,6.90096626606619e-05
-0.000666177312503893,0.00575881038658681,3.60277840076647e-07,5.40565729448008e-05
-0.000669264833287289,0.00574864183358203,-2.42175400455971e-06,4.23773575201044e-05
-0.000671756307587403,0.00573796068060164,-4.75216686421675e-06,3.18300313523684e-05
-0.000676000158548364,0.00572527681143742,-8.76994467679892e-06,1.94446742164093e-05
-0.000680387060665313,0.00571097169583867,-1.32018047185541e-05,5.58928399737573e-06
-0.000682008307099837,0.005699587208008,-1.5346008647361e-05,-7.24305351626048e-06
-0.000682568590794122,0.00568776164577971,-1.5212121950923e-05,-1.8580202384478e-05
-0.000682699721020443,0.00567405257666424,-1.53749007702714e-05,-3.02863373881715e-05
-0.000683820288409012,0.00566223893536561,-1.73657242424633e-05,-4.28978950477869e-05
-0.000686514418513442,0.00565168891261154,-2.02177349961919e-05,-5.43887940986058e-05
-0.000689482730000182,0.00564010176897655,-2.24251325153687e-05,-6.33300687378321e-05
-0.000689899962538479,0.0056316617507733,-2.36658047199306e-05,-7.07364773466016e-05
-0.000689399283492522,0.00562691722076638,-2.43858696775605e-05,-7.71611025526014e-05
-0.000690865557841394,0.00562157664427618,-2.49331674319493e-05,-7.99330816783682e-05
-0.000690567534599753,0.00562526021154286,-2.54789648699765e-05,-7.58087404662186e-05
-0.000690722506685406,0.00563304457861451,-2.6026260649356e-05,-6.60083458184813e-05
-0.00068973306952316,0.00564314160604129,-2.62283718937816e-05,-5.66150673049511e-05
-0.000689578097437507,0.00564496550828013,-2.56592712741168e-05,-5.32488514367835e-05
-0.000687360804519701,0.00563954148528227,-2.42932529726629e-05,-5.59543783776275e-05
-0.000684797804641593,0.00563559565756295,-2.23377607875877e-05,-5.96392149247595e-05
-0.000680923502500266,0.00563577447150793,-1.97277655720691e-05,-5.91990484702954e-05
-0.000677621404982889,0.00563833747138604,-1.61826554136314e-05,-5.39246226080428e-05
-0.000672292749422356,0.00564320121068962,-1.15919848123818e-05,-4.69225106915008e-05
-0.000665271321849306,0.00564984116851337,-6.0564572746988e-06,-4.07172785244135e-05
-0.000658953229126527,0.00565372739158436,7.88225565169986e-08,-3.4374019028152e-05
-0.000652420559669766,0.00566059384707176,5.90334014082942e-06,-2.53180426027146e-05
-0.000647151508757562,0.0056722644372144,1.02506170655297e-05,-1.29189491142776e-05
-0.000643861332169851,0.00568376813434172,1.29135461814934e-05,9.10573097863081e-07
-0.000640666523019464,0.00569566522214801,1.49990996974706e-05,1.41302620018228e-05
-0.000637567081306403,0.00570626292862075,1.74084590678524e-05,2.62843529013787e-05
-0.000635111369795285,0.00571526323051829,1.95835943019507e-05,3.79950160019925e-05
-0.000632834472229151,0.00572577749048337,2.05978168294489e-05,4.97698782438797e-05
-0.000631487407176936,0.00573538575979386,2.07826887634687e-05,6.08742452694179e-05
-0.000631010569990311,0.00574084554558072,2.10283868179857e-05,6.83135743251645e-05
-0.000630629100241011,0.00573741231783702,2.0915517101569e-05,6.79602577239273e-05
-0.000631201304864961,0.00572726760669157,1.90195933144369e-05,5.88251858934535e-05
-0.000633907355899057,0.00571349893292778,1.50406882379971e-05,4.57569905080816e-05
-0.000638949909147615,0.00569866929642375,1.02812569446632e-05,3.53658433879004e-05
-0.000642728843851617,0.00569133792467939,5.99215600910707e-06,2.913855342895e-05
-0.000643813648451188,0.00568474565057431,2.75383091834753e-06,2.31920504524317e-05
-0.000644803085613435,0.00567307506043166,1.67360049016776e-06,1.51221441062964e-05
-0.000642430820609976,0.00566400323295612,4.2251214510141e-06,7.65473670050689e-06
-0.000635635890700572,0.00565843615880228,9.74415340379528e-06,3.85404412661564e-06
-0.000629448928204115,0.00565434727992697,1.45460520508497e-05,1.92450437117711e-06
-0.00062897209101749,0.00564843449881282,1.5222436318354e-05,-2.17775298811472e-06
-0.000631618537403258,0.00563951764342294,1.22634061734533e-05,-8.78587936132356e-06
-0.00063368085823541,0.00563216242981925,9.06299168134855e-06,-1.43049371651147e-05
-0.000634133853562704,0.00562846694162291,7.76549856723539e-06,-1.60227358253099e-05
-0.000634241141929694,0.00562858615091956,7.58806086045888e-06,-1.41377314312868e-05
-0.000634479560523007,0.00563137564846132,7.1933033464948e-06,-9.24797054402115e-06
-0.000633442439642098,0.00563817057837072,6.9896269073527e-06,-8.32768684282231e-07
-0.000632035769941555,0.00564703975004195,8.10451859320982e-06,1.07931759277069e-05
-0.00062973503051609,0.00565872226111425,1.00122796621494e-05,2.28785836760962e-05
-0.000629091300314146,0.005665433744516,1.05323302523491e-05,3.17542108845726e-05
-0.000630533732803686,0.00566626820959259,8.32464149698523e-06,3.5213596688563e-05
-0.000633585490798085,0.00566282306091923,4.59075731976941e-06,3.30369597235812e-05
-0.000636327304621178,0.00565564666126052,1.84945832021385e-06,2.6170978333817e-05
-0.000636482276706831,0.0056433800246346,1.4415207590747e-06,1.6229140961947e-05
-0.000634479560523007,0.0056297544020268,2.81931599597557e-06,5.60176435550782e-06
-0.000631463565317605,0.00562224421633746,5.05711507924271e-06,-2.63065209021503e-06
-0.000628912486369162,0.0056178930770095,8.05658810460087e-06,-5.85727595142383e-06
-0.000624430216814888,0.00561744008168221,1.17471113368352e-05,-3.91738887249385e-06
-0.000620937384422861,0.00561995539784166,1.48912671276006e-05,4.19597693172346e-07
-0.000619828737963959,0.00562485489993423,1.57780223343807e-05,4.27197713298901e-06
-0.000621080435578849,0.00562734637423434,1.39840884550596e-05,7.77461586917522e-06
-0.000624430216814888,0.00562944445785549,1.04931342801327e-05,1.24423216194813e-05
-0.000628960170087824,0.00563299689489584,6.00028527241957e-06,1.63152948782199e-05
-0.000633561648938754,0.00563212666703025,1.37711674311728e-07,1.39987680615273e-05
-0.000641179122995086,0.00561974082110767,-7.17148809805503e-06,3.6728492135544e-06
-0.000648438969161449,0.00560708079380279,-1.45002781859622e-05,-8.52702422028077e-06
-0.000652968922434385,0.00560102496153265,-1.98915681489313e-05,-1.44592652973575e-05
-0.000655663052538815,0.00560317072887246,-2.26929036258824e-05,-1.30585715890532e-05
-0.000656533280404406,0.0056061748031482,-2.38621904895066e-05,-1.01842043247846e-05
-0.000657117405958021,0.00560485157995531,-2.47769118895693e-05,-1.01984180727171e-05
-0.000658524075658564,0.00560433897997969,-2.62164105438682e-05,-1.16393438198966e-05
-0.000659894982570111,0.00560567412410224,-2.81123310871938e-05,-1.18361509285932e-05
-0.000660705605787373,0.00560574564968024,-2.96928283081773e-05,-1.19099164661184e-05
-0.00066180233131661,0.00560188326846857,-3.01789953405012e-05,-1.4731834648797e-05
-0.000661373177848648,0.00559904608720816,-2.99435050471323e-05,-2.00115004770025e-05
-0.000660586396490717,0.00559637579896306,-3.05999585733175e-05,-2.41999298679741e-05
-0.000663661996344447,0.00559487376182519,-3.30876231250578e-05,-2.51035652735008e-05
-0.000666630307831186,0.005597019529165,-3.58945747675919e-05,-2.4948601825265e-05
-0.000666284600870883,0.00559450421300556,-3.62816456703637e-05,-2.82132874247432e-05
-0.000663101712650163,0.00558854374817274,-3.34172084100316e-05,-3.66049789176861e-05
-0.000658893624478198,0.00557949576255654,-2.91928947827845e-05,-4.6591904987725e-05
-0.000655388871156506,0.00557411942327734,-2.55402440024842e-05,-5.27074597773581e-05
-0.000652074852709463,0.00557566914413387,-2.22247832885239e-05,-5.34993830592157e-05
-0.00064740184828054,0.00557892355793259,-1.82723354846489e-05,-5.2750974000897e-05
-0.000643444099631554,0.00557894739979192,-1.43276904460043e-05,-5.37489265293103e-05
-0.000641799011337698,0.00557943615790821,-1.17066307207002e-05,-5.42629141883367e-05
-0.000639367141685911,0.00558711323661287,-9.56427893094111e-06,-4.98568111811746e-05
-0.000634217300070363,0.00559817585934257,-5.34148587086641e-06,-4.11937600972472e-05
-0.000628423728252871,0.0056049946311113,1.35526790857235e-06,-3.46726260929567e-05
-0.000623095072692339,0.00560737881704443,7.48743744559538e-06,-3.53585767827557e-05
-0.00061966184494864,0.00560296807306815,1.06833718043668e-05,-4.19430451748976e-05
-0.000616753138110229,0.00559793744074925,1.29111083231877e-05,-4.91822511007708e-05
-0.000613117254562214,0.00559631619431473,1.78912091759762e-05,-5.24977362887762e-05
-0.00060613158977816,0.00560132298477429,2.57911265763706e-05,-4.9286689270759e-05
-0.000598740613385475,0.00561499629110076,3.29770908346002e-05,-3.87926526420758e-05
-0.000594294106620199,0.00563259158328721,3.68961907261528e-05,-2.28141225483157e-05
-0.000594627892650836,0.00565196309399385,3.87959326942761e-05,-4.73624517518654e-06
-0.000592899357849321,0.00567362342319628,4.11599073715453e-05,1.38144433961029e-05
-0.000588810478974013,0.00569528375239871,4.45809788742056e-05,3.38888628769542e-05
-0.000587165390680158,0.00571874414198066,4.78436012118044e-05,5.57936941037901e-05
-0.000586557423267211,0.00574218068970327,4.91350147899063e-05,7.68663287343344e-05
-0.000590252911463553,0.00576099191671562,4.66207193647665e-05,9.39774786074576e-05
-0.000597453152981588,0.00577415262306646,4.0333679044822e-05,0.000105929968100869
-0.00060324672479908,0.00578230653895775,3.45931565256979e-05,0.000111909725457552
-0.00060400966429768,0.00578265224591805,3.54858172492696e-05,0.000110659227555441
-0.000598359143636176,0.00577676330666323,4.33868589684658e-05,0.00010391480201041
-0.000591111218399478,0.00577198301386732,5.03619656437738e-05,9.76360688316341e-05
-0.000593864953152236,0.00577156578132902,4.83909513178588e-05,9.55203556513918e-05
-0.000605964696762842,0.00576959882793419,3.8663036273153e-05,9.28942977560441e-05
-0.000618124045021775,0.0057592276191251,2.87982285379491e-05,8.16613467521846e-05
-0.000624191798221576,0.00573951040145817,2.15148087752866e-05,6.08254795180623e-05
-0.000637054481330781,0.00571680103044516,1.08486805952417e-05,3.75774629619176e-05
-0.000659835377921783,0.00569807324994047,-8.76223701154739e-06,1.78644883663877e-05
-0.000684165995369315,0.00568127666004161,-3.33290037808553e-05,9.6295914829899e-07
-0.000704503101378864,0.00566504035383703,-5.21906064469626e-05,-1.51002437497646e-05
-0.00071268085912948,0.00565347705206138,-5.84450400851925e-05,-2.78748796750667e-05
-0.000709962887165718,0.00564773116396255,-5.41683852408903e-05,-3.38391505650778e-05
-0.000703990501403242,0.00564574036870839,-4.61559233249939e-05,-3.40190078939401e-05
-0.000696778338955542,0.00564889941506978,-3.87914020641172e-05,-3.20183937735564e-05
-0.000691688101988322,0.0056528452427891,-3.14520894014666e-05,-2.82585467266854e-05
-0.000683927576776002,0.00565913949365255,-2.15642939764181e-05,-2.03806042442199e-05
-0.000672662298241991,0.00567008290708559,-9.07447860683556e-06,-8.790006921834e-06
-0.000661623517371626,0.00568091903215164,2.5814571420811e-06,2.12694829020776e-06
-0.000656592885052734,0.00568718944115576,9.8255479843309e-06,8.83213605462189e-06
-0.000656402150178084,0.00568801198530269,1.225713865759e-05,1.15777600626116e-05
-0.000657129326887687,0.00568738017603041,1.18962404809556e-05,1.17900978744969e-05
-0.000660097638374426,0.00568398271107571,1.02383200655986e-05,9.5700659825359e-06
-0.000665080586974656,0.0056798938322004,7.626371155793e-06,5.37357233831936e-06
-0.000669145623990632,0.00567288432555701,4.59767567990527e-06,1.55781708346699e-06
-0.000672924558694634,0.00566961799082863,1.41509160059259e-06,-3.75093197714153e-07
-0.000680291693227988,0.0056669238607242,-3.53826756359825e-06,-2.8426200602582e-06
-0.000689256232336535,0.0056582215820683,-1.21221357231298e-05,-9.8680303210241e-06
-0.000701081794564831,0.00564329657812694,-2.26118992312998e-05,-2.18272154691658e-05
-0.000710427803422678,0.00562881264858321,-3.02034776564884e-05,-3.46043857198925e-05
-0.000713121933527108,0.00561927590485072,-3.2517711463412e-05,-4.44461354057338e-05
-0.00071355108699507,0.00560845170071433,-3.21553328917639e-05,-5.20786541560156e-05
-0.000715577645038226,0.00559661421755637,-3.2302127468201e-05,-6.11650607540863e-05
-0.000715994877576523,0.0055833581437682,-3.23019164270133e-05,-7.35760013616761e-05
-0.000713896793955373,0.00556865963749049,-2.9788828982735e-05,-8.68684300537907e-05
-0.000710356277844684,0.00555764469847946,-2.51300091294795e-05,-9.58119120951685e-05
-0.000707042259397641,0.00555399689400177,-2.09919227224135e-05,-9.59005838551233e-05
-0.000705266040877464,0.00556300911682898,-1.87461465622262e-05,-8.60586245554548e-05
-0.000704801124620505,0.00557969841836085,-1.79126131412479e-05,-6.87467253086415e-05
-0.000705313724596126,0.00559817585934257,-1.81824132988956e-05,-4.75472258290949e-05
-0.000707495254724935,0.00561629567243431,-1.92498409817352e-05,-2.4845592491328e-05
-0.000707519096584266,0.00564034018756987,-1.92267709877444e-05,-2.32377894514544e-06
-0.000703716320020933,0.00565882954948124,-1.60728120802032e-05,1.71875393778621e-05
-0.000699555915567631,0.0056669238607242,-1.05742488587475e-05,3.0786418422336e-05
-0.000693964999554455,0.00567479167430351,-5.29870369817773e-06,3.93537570459442e-05
-0.000688695948642251,0.00568442378547333,-4.22783544269254e-07,4.80512451409478e-05
-0.000682115595466828,0.00569404397571349,6.74147155935016e-06,6.07211058271864e-05
-0.000670599977409838,0.0057049277844982,1.74464147495135e-05,7.5082950494842e-05
-0.000659012833774855,0.00571601424908723,2.92600962476687e-05,8.59645450668498e-05
-0.000649166145871052,0.00572177205811572,3.91799393868721e-05,9.21880271340851e-05
-0.000640380420707489,0.00572450195100915,4.67540541888675e-05,9.68576330495076e-05
-0.000634181537281366,0.00572518144400009,5.26403866376067e-05,0.000101036170531661
-0.000631630458332923,0.00572671924392696,5.59571330214787e-05,0.000101324237160217
-0.000630867518834324,0.00572030578376685,5.50836284760592e-05,9.53012606669125e-05
-0.000634586848889997,0.00570762191460263,5.02020141584376e-05,8.57173111013597e-05
-0.000642347374102317,0.0056977513848395,4.3349722512403e-05,7.64475844603738e-05
-0.00064827207614613,0.00568841729691132,3.62570101790612e-05,6.68518277390415e-05
-0.000653696099143988,0.00567437444176521,2.91680851243178e-05,5.3432619621282e-05
-0.000661146680185001,0.00565491948455092,2.1411376573074e-05,3.541785012929e-05
-0.000670385400675857,0.00563416514600308,1.2365106461211e-05,1.52752042121419e-05
-0.000678348581692492,0.00561354193768155,2.35169978843079e-06,-5.34317746556995e-06
-0.000686204474342136,0.00559303793865668,-6.84957871303437e-06,-2.66859077245209e-05
-0.000692975562392209,0.00556997093975371,-1.31258330436642e-05,-4.81683195242116e-05
-0.000694680255334392,0.00554943117793984,-1.62781750189238e-05,-6.7672889110878e-05
-0.000694549125108071,0.00553607973671435,-1.82179885135755e-05,-8.36839873828388e-05
-0.000696444552924904,0.00552345547219845,-2.02353217782108e-05,-9.54721969819772e-05
-0.00069694523197086,0.00551584991907179,-2.13660964952206e-05,-0.000101537629811789
-0.00069414381349944,0.00551846060266856,-2.07001895441646e-05,-0.00010128129407957
-0.00069261793450224,0.00552132162578831,-1.99888539571098e-05,-9.83624622445044e-05
-0.00069367889724248,0.00552115473277299,-2.194746208429e-05,-9.84851117630674e-05
-0.000697481673805813,0.00551812681663792,-2.65358567530543e-05,-0.000102646160805675
-0.000699627441145625,0.00551472935168322,-3.09210945031364e-05,-0.000106069228462289
-0.000701236766650484,0.00551683935623403,-3.2904798733174e-05,-0.000105235810558096
-0.000699520152778634,0.00552084478860168,-3.23437034086005e-05,-0.000102091731891628
-0.00069493059485737,0.005524790616321,-2.92230157498004e-05,-9.88047266561692e-05
-0.00068763498590201,0.0055320027787687,-2.29159491412671e-05,-9.19959814922721e-05
-0.000677633325912555,0.00554982456861881,-1.44053278821048e-05,-7.59827493299297e-05
-0.000669646303036589,0.00557745728358372,-7.0443973272506e-06,-4.9657649814151e-05
-0.000664520303280372,0.00561028752388284,-3.24398595111066e-06,-1.68131082426719e-05
-0.000661301652270654,0.00564709935469027,-1.60778041207282e-06,1.82251236237623e-05
-0.000658261815205921,0.00568126473911194,8.82824177291758e-07,5.1251475943819e-05
-0.000653147736379369,0.00570807490992993,4.65037453194622e-06,7.6134876986027e-05
-0.000649559536550017,0.00571957860705725,7.30877160567082e-06,8.75564549826042e-05
-0.000648152866849474,0.00572059188607883,7.31692917318448e-06,8.71142750042208e-05
-0.000648725071473424,0.0057190421652223,6.05397142867954e-06,8.34147836651512e-05
-0.00064759258315519,0.00572137866743676,6.01769226671045e-06,8.44688195805239e-05
-0.000644481220512463,0.00572849546244713,8.30618411462733e-06,9.13572359411085e-05
-0.000639486350982568,0.0057380083643203,1.22538924572378e-05,9.92323303164748e-05
-0.000634086169844041,0.00574374233148946,1.64308977279983e-05,0.000102273866406108
-0.000630807914185996,0.0057394984805285,1.94034857363661e-05,9.75942237222489e-05
-0.000629258193329465,0.00572869811825145,2.0197066073943e-05,8.67193468366629e-05
-0.00062897209101749,0.00571892295592564,1.85652181072019e-05,7.37758990644582e-05
-0.000633358993134439,0.00570709739369734,1.46322967177523e-05,6.06094810626748e-05
-0.000638735332413633,0.00569043193402481,8.38889007928139e-06,4.42523477270126e-05
-0.000645506420463706,0.00566996369778894,7.6082109631223e-08,2.16257637267502e-05
-0.000654935875829212,0.00564590726172371,-9.09388256327749e-06,-4.12470711023432e-06
-0.000662350694081228,0.00562526021154286,-1.73441609764463e-05,-2.56617303225866e-05
-0.000667548219415439,0.00561145577499007,-2.34308639064417e-05,-3.97647418318276e-05
-0.000670898000651479,0.00560436282183902,-2.67258639075988e-05,-4.93772289254694e-05
-0.000669872800700235,0.00559768710122628,-2.65976506192023e-05,-5.66191949249801e-05
-0.00066593889391058,0.00559572014783145,-2.28498100425369e-05,-5.8782056161106e-05
-0.00065910820121218,0.00560338530560644,-1.66468278642744e-05,-5.39547822824307e-05
-0.000652217903865451,0.00561083588664746,-9.63663555390133e-06,-4.62182596654905e-05
-0.000644028225185169,0.00561664137939461,-1.94043741329475e-06,-4.09536107139842e-05
-0.000633716621024407,0.00562236342563411,7.627517270287e-06,-3.76319244410049e-05
-0.000622975863395683,0.00562876496486455,1.89439312644148e-05,-3.16430445971391e-05
-0.000612044370892308,0.00563848052254203,2.95656740444366e-05,-2.177238529043e-05
-0.000604164636383333,0.00564988885223203,3.69344529131883e-05,-1.16591481399411e-05
-0.000600671803991306,0.00565916333551188,4.02994449961321e-05,-4.48746557113218e-06
-0.00060161355743489,0.00566322837252786,3.99270540103742e-05,-7.14024556972265e-08
-0.000605237520053239,0.00566549334916433,3.61266094661729e-05,2.874969254652e-06
-0.000610458887246781,0.00567088160937319,3.01283857140906e-05,5.06080838197085e-06
-0.000617432631101169,0.0056738260790006,2.4171295209316e-05,7.61958974667954e-06
-0.000622117556459758,0.00567650828817536,1.90720907808677e-05,1.18665716733336e-05
-0.000628244914307887,0.00568468604592598,1.32124329616045e-05,1.74593537740343e-05
-0.000635945834871878,0.00569032464565782,5.96442940813414e-06,2.29933328689059e-05
-0.000639927425380196,0.00569684539418491,7.07047311890555e-07,2.83770889623985e-05
-0.000640916862542442,0.00570218597067511,1.51709264000328e-06,3.40816929687634e-05
-0.000635767020926894,0.00570639405884707,7.2402171799056e-06,3.81971968760906e-05
-0.000628662146846184,0.0057083967750309,1.18897191769187e-05,3.75016008645661e-05
-0.000630927123482652,0.00570284162180672,1.1624449717718e-05,3.22562169514597e-05
-0.000635290183740269,0.00569645200350594,8.88657605036345e-06,2.70980601731408e-05
-0.000633335151275107,0.0056976798592615,8.53533728939839e-06,2.60219379858948e-05
-0.00063022378863238,0.00570192371022246,1.19434576568664e-05,2.87303991045932e-05
-0.000628137625940897,0.00570490394263887,1.63773962862468e-05,3.26632545509975e-05
-0.000625300444680479,0.00570749078437631,1.8556349599087e-05,3.59488173770219e-05
-0.0006258130446561,0.00571256910041386,1.68776154510052e-05,3.72486725936122e-05
-0.000632929839666476,0.0057106140679487,1.092770105838e-05,3.54733706786272e-05
-0.000644648113527782,0.00570467744497522,8.51441405473789e-07,3.13664821567963e-05
-0.000656175652514437,0.00570342574736033,-1.23102895200171e-05,2.71257194620603e-05
-0.000670325796027529,0.00570039783122527,-2.65344920274982e-05,2.29079405249598e-05
-0.00068532232554688,0.00569248233392729,-3.95856154406419e-05,1.60412476042946e-05
-0.000695216697169345,0.00568298135298379,-4.98885941706109e-05,5.34684938894295e-06
-0.000701069873635165,0.00567307506043166,-5.67565348878148e-05,-6.35625628620039e-06
-0.000705611747837767,0.00566291842835655,-5.97773988311535e-05,-1.62198253064402e-05
-0.000703537506075949,0.00565527711244089,-5.79693311526071e-05,-2.52760253819932e-05
-0.000696229976190923,0.00564534697802943,-5.01962562180275e-05,-3.56668222189637e-05
-0.0006824374605678,0.00563546452733663,-3.71851301549941e-05,-4.6376636767552e-05
-0.000668633024015011,0.00562825236488893,-2.25321397486652e-05,-5.52071271363572e-05
-0.000657105485028355,0.00562015805364597,-1.03416081460247e-05,-6.31732992926749e-05
-0.000647807159889171,0.00561202797961402,-2.01075454372124e-06,-7.27529581306255e-05
-0.000642561950836298,0.00560331378002845,3.24981948210822e-06,-8.24641133983362e-05
-0.000642466583398973,0.00559881958954451,5.0022726070977e-06,-8.74792614617293e-05
-0.000645339527448387,0.00560138258942262,1.01069940356386e-06,-8.62625574656832e-05
-0.000654923954899547,0.00560532841714194,-9.07833848426879e-06,-8.32037992526042e-05
-0.000669086019342304,0.00560523304970461,-2.1525060396668e-05,-8.36335445243307e-05
-0.000678467790989148,0.0056016329289456,-3.15262629577444e-05,-8.87277465312475e-05
-0.000683534186097037,0.00559605393386209,-3.71862639528995e-05,-9.5824054255269e-05
-0.000686526339443108,0.00559029612483359,-3.90840655122017e-05,-0.000100800826047605
-0.000684309046525302,0.00559383664094428,-3.72241998620668e-05,-9.90325015078069e-05
-0.000677871744505867,0.00560778412865306,-3.04728248057635e-05,-8.69272923675428e-05
-0.000666141549714896,0.00562921796019184,-1.87591133210907e-05,-6.49033061580417e-05
-0.000651764908538157,0.00565651688912612,-4.4100439184042e-06,-3.79108671030965e-05
-0.000639069118444271,0.00568541322263558,8.74700100000873e-06,-1.1914437208949e-05
-0.000630998649060646,0.00570606027281644,1.72281933331971e-05,9.49846654764644e-06
-0.000627803839910259,0.00572226081623201,2.00198585395192e-05,2.54948767600737e-05
-0.000627851523628922,0.00573562417838717,2.00474117423338e-05,3.7521343532706e-05
-0.00062676671902935,0.00574848686149638,2.23877758396577e-05,4.91529997800737e-05
-0.000619459189144324,0.00576218400968218,2.93432459515526e-05,6.39085961374047e-05
-0.000610828436066415,0.0057805541622969,3.79761821505505e-05,8.16507707790533e-05
-0.000605022943319258,0.00579937731023892,4.39638509113446e-05,9.86017481579541e-05
-0.000603842771282361,0.00581097637480356,4.67697372523529e-05,0.000111628069026479
-0.000601363217911912,0.00581998859763077,4.8908824282926e-05,0.000120506812308179
-0.000598084962253866,0.00582652126708753,5.11821988003968e-05,0.000125382827853258
-0.000599885022633375,0.00582463776020037,5.1756912544877e-05,0.000125127491350863
-0.000602555310878474,0.00582001243949011,4.99322880155923e-05,0.000120205860509653
-0.000603270566658411,0.00581450496998459,4.74370081439445e-05,0.000114326240776439
-0.000607454812971044,0.00580946241673603,4.48242327914694e-05,0.000110170961949984
-0.000614619291700082,0.00580431257512048,3.95616510527908e-05,0.000105273263374464
-0.000623774565683279,0.00579370294771808,2.9863147935197e-05,9.53408720778023e-05
-0.000635075607006288,0.00577881370656572,1.84044311100781e-05,8.05505770374788e-05
-0.000645172634433069,0.00576262508407981,9.72564056358558e-06,6.52483858817975e-05
-0.000652349034091773,0.00574780736850544,4.980840176753e-06,5.18776602664968e-05
-0.000653791466581313,0.00573420558775697,1.55525074586392e-06,3.84822217220815e-05
-0.000659132043071511,0.00571762357459209,-2.7048533862876e-06,2.24661958091424e-05
-0.000666582624112524,0.00569694076162224,-7.28920077358171e-06,3.83777177658653e-06
-0.000670421163464854,0.00567560229752077,-1.12595177009813e-05,-1.60693801794143e-05
-0.000673675577263568,0.00565556321475287,-1.55835710213571e-05,-3.64844253389158e-05
-0.000683093111699409,0.00563324723441882,-2.20792354950537e-05,-5.64748011615601e-05
-0.000693464320508499,0.00561313662607292,-3.08609556329637e-05,-7.41917159876969e-05
-0.000700712245745197,0.00559897456163016,-3.96282578822278e-05,-8.82370031494535e-05
-0.000707840961685238,0.00558706555289421,-4.51646664434789e-05,-9.86457089208542e-05
-0.000710618538297328,0.00557739767893539,-4.52584402142555e-05,-0.000105595651550118
-0.000704181236277892,0.00557314190704476,-3.97016399977052e-05,-0.000108344455879837
-0.000695347827395667,0.00557401213491035,-3.00931294455329e-05,-0.000106483879019935
-0.000686025660397152,0.00557711157662341,-1.88261035702431e-05,-0.000101255312196134
-0.000676059763196693,0.00558123621828772,-8.02048398966407e-06,-9.43795357760931e-05
-0.000666809121776171,0.00558896098071104,1.04570060472571e-06,-8.58982337906649e-05
-0.000661599675512294,0.00559843811979521,8.0278197171578e-06,-7.39673083058531e-05
-0.000657331982692002,0.00561336312373657,1.32163828232301e-05,-5.67849604674645e-05
-0.000653851071229641,0.00563435588087773,1.68580553704816e-05,-3.46545434089481e-05
-0.000653493443339672,0.00565547976824521,1.87117247167794e-05,-1.05499582087061e-05
-0.000653970280526297,0.00567572150681743,1.85959901139118e-05,1.13761533963074e-05
-0.000656354466459421,0.00569142137118705,1.72084519230124e-05,2.8423476593678e-05
-0.00065853599658823,0.00570061240795925,1.5596021133648e-05,4.0504139780576e-05
-0.000661289731340988,0.00570697818440069,1.36051904968369e-05,4.83722631912363e-05
-0.000666189233433558,0.0057079795424926,9.71339712360809e-06,5.16047842193491e-05
-0.000672626535452994,0.00570462976125656,2.94444267238279e-06,4.98237316271787e-05
-0.000682795088457768,0.00569863353363475,-5.61477676044005e-06,4.53735469342365e-05
-0.000691103976434706,0.0056927565153096,-1.36154481725771e-05,4.23555099300453e-05
-0.000696551841291895,0.00569115911073441,-1.91720667767508e-05,4.21636056589543e-05
-0.000699889701598269,0.00569032464565782,-2.15706376053659e-05,4.18188449687053e-05
-0.000700163882980578,0.00568382773899005,-2.13337572534104e-05,3.78776687420438e-05
-0.000699412864411644,0.00567362342319628,-2.02895582771935e-05,3.03627433565265e-05
-0.000699436706270975,0.00566518340499302,-2.05434605739512e-05,2.13811804516342e-05
-0.000701785129415102,0.00565401349389633,-2.22893316322102e-05,1.15327969133247e-05
-0.000703799766528592,0.00563936267133729,-2.33365123913636e-05,1.69800980643202e-07
-0.000701117557353828,0.00562824044395926,-2.18139394639375e-05,-1.13523138562092e-05
-0.000698399585390066,0.00561919245834306,-1.85408427992429e-05,-1.93437995308773e-05
-0.000695955794808614,0.00561625990964531,-1.55009912251319e-05,-2.13952200562003e-05
-0.000692987483321874,0.00561764273748652,-1.28641834557616e-05,-1.85237334217478e-05
-0.000689017813743223,0.00562266144887575,-9.29574830264601e-06,-1.28032369141105e-05
-0.000684487860470287,0.00563191209029627,-4.73690161618869e-06,-4.47031791357251e-06
-0.000681197683882575,0.00564156804332543,-7.68720417352373e-07,6.89719100133522e-06
-0.000677192251514927,0.00565319094974941,2.01951270596532e-06,1.90442943385856e-05
-0.000674414674902837,0.00566233430280294,5.13212998540717e-06,2.7188810554853e-05
-0.00066890720539732,0.00566313300509053,9.95325270190275e-06,2.87350481509346e-05
-0.000663483182399462,0.005661619047023,1.58451801575036e-05,2.69227182790826e-05
-0.000657606164074311,0.00566313300509053,2.11217190010732e-05,2.80397860307195e-05
-0.000652742424770738,0.00566952262339131,2.46893608543139e-05,3.44224184263831e-05
-0.000652229824795116,0.00567734275325195,2.60922031633759e-05,4.12832276521659e-05
-0.000652778187559735,0.00567835603227353,2.51604754520089e-05,4.15695120217701e-05
-0.000653910675877969,0.0056707743210062,2.24547178256758e-05,3.33748185168725e-05
-0.000657486954777655,0.00565911565179322,1.91263285034172e-05,2.11378143069602e-05
-0.000660979787169682,0.00564937625225641,1.56002102721002e-05,9.8143024456846e-06
-0.000664508382350706,0.00564111504799813,1.11504257873001e-05,-5.29386714024379e-08
-0.000669789354192576,0.0056304815787364,5.2186818663672e-06,-1.08534084776623e-05
-0.000676441232945992,0.00561946663972536,-1.78630030537826e-06,-2.38493848946339e-05
-0.000683963339564999,0.00560659203568649,-9.32044398574218e-06,-3.84833274523773e-05
-0.00069098476713805,0.00559262070611839,-1.70575269805484e-05,-5.39566496271716e-05
-0.000696718734307214,0.00557978186486851,-2.39297480779845e-05,-6.86778262169386e-05
-0.000701439422454799,0.0055700782281207,-2.83268721303781e-05,-7.89979723569196e-05
-0.000702917617733336,0.00557068619553364,-3.00518260348801e-05,-8.19196449269903e-05
-0.000702047389867746,0.00557504925579126,-3.05479603752494e-05,-7.9499852221561e-05
-0.000701868575922762,0.00557739767893539,-3.02458866396851e-05,-7.73641655417891e-05
-0.000698888343506357,0.00558058056715611,-2.74918555240694e-05,-7.77120092472511e-05
-0.000692057650807956,0.0055837753763065,-2.15355525206263e-05,-7.69401573037048e-05
-0.000685346167406211,0.00559017691553693,-1.46880603335685e-05,-7.19647109400509e-05
-0.000679349939784404,0.00559895071977083,-9.3968537528518e-06,-6.53410664971732e-05
-0.000674212019098521,0.00560624632872619,-4.73506162525957e-06,-6.06223342984717e-05
-0.000668156186828386,0.00561372075162654,1.64180210438547e-06,-5.53700909318755e-05
-0.000660097638374426,0.00562807355094394,9.26084372137958e-06,-4.37357043377605e-05
-0.000652802029419066,0.00564750466629891,1.55823156499362e-05,-2.52144831309629e-05
-0.000648474731950446,0.00567003522336693,2.03246647962413e-05,-6.00821819719823e-06
-0.000643599071717207,0.00568690333884378,2.56796406215317e-05,8.60429358155355e-06
-0.00063558820698191,0.00569849048247877,3.2135047846244e-05,1.85530319869032e-05
-0.000630807914185996,0.00570702586811935,3.75070665384183e-05,2.47511201353597e-05
-0.00062752965852795,0.00571029220284773,4.08664690689678e-05,2.59551757285826e-05
-0.000624394454025892,0.00570899282151418,4.39268445173421e-05,2.27383341413875e-05
-0.00062091354256353,0.00570895705872518,4.6881388641547e-05,2.00853978315213e-05
-0.000622081793670761,0.00571165118882961,4.61084699281258e-05,2.17335742849939e-05
-0.000629270114259131,0.00571646724441452,3.87615052855555e-05,2.48347593606728e-05
-0.000641083755557761,0.00571883950941798,2.75047635557565e-05,2.46302085900045e-05
-0.000650394001626611,0.00571762357459209,1.77319778845581e-05,2.22781790421512e-05
-0.000656509438545074,0.00572048459771184,1.13017620016801e-05,2.33342498922434e-05
-0.000663387814962138,0.00572699342530927,5.75293025726591e-06,2.97729304877112e-05
-0.000669908563489232,0.00573844943871793,-1.11484119740585e-06,3.84095946450262e-05
-0.000676977674780945,0.00574882064752702,-8.70920380184126e-06,4.67873687153726e-05
-0.000684392493032962,0.00575600896811539,-1.54376244428442e-05,5.57520228077077e-05
-0.000690054934624132,0.00576821600009298,-2.02976396331939e-05,6.59067165435998e-05
-0.000691640418269659,0.00578162704596681,-2.22932023165369e-05,7.63053172303431e-05
-0.000689888041608813,0.00579129491992563,-2.07356946994729e-05,8.74664487565767e-05
-0.000687134306856054,0.00580403839373817,-1.72048686086331e-05,0.000100584630577344
-0.000686168711553139,0.00581790243493929,-1.53698406927693e-05,0.000111827365307854
-0.000687372725449367,0.00581886803024221,-1.72782676132135e-05,0.000112461270478884
-0.000690460246232763,0.00580297743099793,-2.05808718404514e-05,9.82510429408495e-05
-0.000692474883346253,0.00578087602739787,-2.07289759482486e-05,7.53255045618229e-05
-0.000687170069645051,0.0057596090888744,-1.58684092160536e-05,5.32385837937972e-05
-0.000679516832799723,0.00574079786186205,-8.84032599300354e-06,3.51896405154442e-05
-0.000676119367845021,0.0057235482766359,-4.14883245524528e-06,1.8778608396696e-05
-0.00067524913997943,0.00570817027736725,-3.28378478444447e-06,3.31075920214914e-06
-0.000676107446915355,0.0056954625663437,-3.56370705357024e-06,-9.02908755993868e-06
-0.000673568288896578,0.00568560395751023,-1.90510127188501e-06,-1.80891354898516e-05
-0.000671851675024728,0.00567643676259737,9.74830597200371e-07,-2.63754001492716e-05
-0.000671780149446735,0.0056681040327611,1.49111836493437e-06,-3.41024864818294e-05
-0.000674450437691834,0.00566307340044221,-1.68452086436668e-06,-3.80203027899206e-05
-0.000678312818903495,0.0056639078655188,-5.3678289596e-06,-3.66357634878889e-05
-0.000679504911870057,0.00566598210728062,-5.78032773245271e-06,-3.30821974337841e-05
-0.000676524679453652,0.00566747222348882,-3.0285971788445e-06,-3.08877772351864e-05
-0.000674009363294206,0.00566691193979454,-9.9868171759841e-08,-2.96767825538214e-05
-0.000672328512211353,0.00566853318622906,1.00867990565896e-06,-2.72656198747152e-05
-0.000674331228395178,0.00567164454887179,-5.87142702695968e-08,-2.38491489211616e-05
-0.000677955191013526,0.00567047629776456,-3.84497949045303e-06,-2.15689678258032e-05
-0.000684595148837277,0.0056710842651775,-1.03845481202265e-05,-2.12688257435437e-05
-0.000690627139248081,0.00566898618155635,-1.68949334188408e-05,-2.21922688654946e-05
-0.000693810027468802,0.00566484961896238,-1.92838974473872e-05,-2.41668665473086e-05
-0.000691187422942365,0.00566058192614209,-1.66607470424402e-05,-2.75926271826358e-05
-0.000686121027834477,0.00565496716826958,-1.1990278829789e-05,-3.14341671871274e-05
-0.000681710283858197,0.00565229688002448,-7.84921312286526e-06,-3.37542993858418e-05
-0.000678956549105439,0.00564959082899039,-4.19603723956144e-06,-3.4794123850662e-05
-0.000675451795783746,0.0056453231361701,-9.80253988773711e-07,-3.7170236914204e-05
-0.000673496763318584,0.00564013753176555,2.35034223593307e-07,-4.17893696041784e-05
-0.000675153772542105,0.00563576255057827,-1.0728496237902e-06,-4.56758694536168e-05
-0.00067753795847523,0.00563331875999682,-2.85478004417377e-06,-4.5800183409449e-05
-0.000677478353826902,0.00563563142035195,-3.69244731169743e-06,-4.33363329189426e-05
-0.000678885023527445,0.00563595328545292,-5.10076116003099e-06,-4.1395828143129e-05
-0.000682187121044822,0.00563747916445012,-8.25816110678663e-06,-3.97128410732366e-05
-0.000684690516274602,0.00564121041543546,-1.08019272361563e-05,-3.5298377844265e-05
-0.000683832209338677,0.00564615760124669,-9.95175831774438e-06,-2.83764034421418e-05
-0.000680089037423672,0.00565153394052588,-6.94619984818564e-06,-2.31459810325946e-05
-0.000678181688677173,0.00565458569852028,-4.6722516023825e-06,-2.05664917525608e-05
-0.000675487558572743,0.00565847192159128,-1.94515695941999e-06,-1.44875904110597e-05
-0.000668001214742733,0.00567393336736759,5.70188164670865e-06,1.00089774738104e-06
-0.000652754345700404,0.00569646392443561,1.92556723728433e-05,2.27200330706002e-05
-0.000639569797490227,0.00571396384918474,3.38576450226495e-05,4.13374026671815e-05
-0.000629794635164418,0.00572403703475219,4.41526190576113e-05,5.19251415121165e-05
-0.000622415579701399,0.00573028360189698,4.90406331732448e-05,5.69401818627317e-05
-0.00062282089131003,0.00573164258787886,4.99425017584723e-05,5.91378159074931e-05
-0.000626325644631722,0.00572924648101607,4.71384790120902e-05,5.70832632105157e-05
-0.000632417239690854,0.00572359596035456,3.97928270241336e-05,4.95288219308208e-05
-0.000643599071717207,0.00571272407249952,2.79905854729074e-05,3.96005626540173e-05
-0.000659811536062451,0.00570421252871826,1.31636676155521e-05,3.12685205535962e-05
-0.000675082246964112,0.00569918189639937,-2.47371713607268e-06,2.43329481733903e-05
-0.000687372725449367,0.00569124255724207,-1.61328399364834e-05,1.59960858468464e-05
-0.000698101562148426,0.0056798223066224,-2.55727926914575e-05,5.62991590351159e-06
-0.000702810329366346,0.00567178760002778,-3.08664893491188e-05,-4.75975096053523e-06
-0.000705683273415761,0.00566308532137187,-3.35319957584515e-05,-1.34990509803261e-05
-0.000704872650198498,0.0056574586425697,-3.326593045953e-05,-2.01437799062526e-05
-0.000699460548130306,0.00565377507530302,-2.77345120843565e-05,-2.43277635924955e-05
-0.000689137023039879,0.00565252337768813,-1.695538148721e-05,-2.60218577303419e-05
-0.000677299539881917,0.00565416846598199,-5.56146500491723e-06,-2.64731487883458e-05
-0.000669598619317926,0.00565363202414703,1.66506938909903e-06,-2.71036830551778e-05
-0.000667130986877143,0.00565319094974941,5.0083060168375e-06,-2.79228580136856e-05
-0.000663566628907122,0.0056547525915356,8.02179107156163e-06,-2.84363784390021e-05
-0.000659930745359108,0.00565426383341931,1.1547885975923e-05,-2.93705459014107e-05
-0.000659501591891145,0.00565207038236084,1.24911283680374e-05,-3.17819135958153e-05
-0.000662457982448219,0.00565162930796321,8.61637938242116e-06,-3.4697219580173e-05
-0.00066986087977057,0.00565115247077659,1.99347379989313e-06,-3.49806664677093e-05
-0.000675165693471771,0.00565658841470411,-3.20490877660549e-06,-2.97753514200359e-05
-0.000675761739955052,0.00567005906522626,-4.70425530565855e-06,-1.90208283445641e-05
-0.000674247781887518,0.00568324361343644,-3.15126833575669e-06,-6.34574140633553e-06
-0.000673067609850622,0.00569096837585976,-3.79889870416491e-07,2.71148759771511e-06
-0.00066833500077337,0.00569607053375664,2.45790631444797e-06,5.32082034028343e-06
-0.000665569345090946,0.0056976798592615,5.5153653605593e-06,4.80371969274324e-06
-0.000662457982448219,0.00569841895690077,9.29912051869515e-06,7.28927414339013e-06
-0.00065883401982987,0.00570542846354416,1.28233265050081e-05,1.39080681257062e-05
-0.000657749215230299,0.00571291480737417,1.32499689735086e-05,1.87898559431758e-05
-0.000662493745237216,0.00571121011443198,8.37781751299559e-06,1.64774195850452e-05
-0.000672149698266369,0.00570157800326216,-8.48082794938042e-07,8.7398843855391e-06
-0.000683367293081718,0.0056954268035547,-1.14112386661491e-05,1.59670576671189e-06
-0.000691258948520359,0.00569442544546279,-2.12719714853226e-05,-2.00572886500505e-06
-0.000700366538784894,0.00569181476186602,-2.97182070739823e-05,-3.23256362778899e-06
-0.000706815761733995,0.00569118295259374,-3.51167471186327e-05,-2.76800818621363e-06
-0.000705552143189439,0.00569669042209926,-3.49046878168927e-05,8.92831268029754e-07
-0.000698339980741738,0.0057045820775379,-2.882823629221e-05,8.72976373621322e-06
-0.000691187422942365,0.00571510825843264,-2.0306110958662e-05,1.96991634447968e-05
-0.000683915655846337,0.00572611127651401,-1.31972629005892e-05,3.18572261758174e-05
-0.000678134004958511,0.00573792491781264,-8.46375501972263e-06,4.26917182736282e-05
-0.00067437891211384,0.00574436221983208,-5.04263313681719e-06,4.91895038569641e-05
-0.000672543088945334,0.00574497018724502,-2.22664474816442e-06,5.07233916944444e-05
-0.000668787996100664,0.00574488674073736,7.37120780234939e-07,5.15962164743642e-05
-0.000662851373127185,0.0057508710474295,5.9598422771751e-06,5.72319353683639e-05
-0.000654327908416266,0.00576028858186534,1.49597853085891e-05,6.70447832329362e-05
-0.000643026867093257,0.00576577220951153,2.55281994003803e-05,7.38356532942229e-05
-0.000635707416278566,0.00576286350267312,3.31851389600489e-05,7.13055789824574e-05
-0.000631845035066905,0.00575070415441419,3.64269559593848e-05,6.01339410065337e-05
-0.000629389323555787,0.00573626790858912,3.81953332187399e-05,4.59347664926686e-05
-0.000627088584130322,0.00572251115575499,4.08305758309044e-05,3.32014803641623e-05
-0.000626432932998713,0.00571004186332475,4.16218831196973e-05,2.20124009016347e-05
-0.000631022490919977,0.00569621358491263,3.56294554957543e-05,9.0099785691277e-06
-0.000644505062371794,0.00567767653928259,2.2013546813187e-05,-8.91681545203712e-06
-0.000662314931292232,0.00565542016359688,5.29244875795843e-06,-3.04167053841411e-05
-0.00067524913997943,0.00563491616457201,-9.47583618991397e-06,-4.90486959733841e-05
-0.00068638328828712,0.00562430653716961,-2.05181902408629e-05,-5.87337629527291e-05
-0.000694048446062114,0.0056228521837504,-2.8032843048333e-05,-5.99525382033625e-05
-0.000697040599408185,0.00562291178839873,-3.16382535007028e-05,-5.8611794167445e-05
-0.000696098845964601,0.00562058720711393,-3.10594283482764e-05,-5.90060012092431e-05
-0.000693011325181206,0.00561844143977412,-2.80677831383791e-05,-6.05064992210212e-05
-0.000689756911382491,0.00561742816075254,-2.54431577666527e-05,-6.11035812237148e-05
-0.000688564818415929,0.00561647448637929,-2.39882380006014e-05,-6.05798981999841e-05
-0.000685977976678489,0.00561667714218361,-2.21939491521261e-05,-5.88684136755163e-05
-0.000682783167528103,0.00562006268620865,-1.90867730465861e-05,-5.45190915233213e-05
-0.00067936186071407,0.00562754903003866,-1.58906610448348e-05,-4.69711335135651e-05
-0.000677418749178573,0.00563484463899402,-1.42602961068159e-05,-3.80716400577091e-05
-0.000676977674780945,0.00564210448516038,-1.41485325361264e-05,-2.93646142800247e-05
-0.000677192251514927,0.00565115247077659,-1.43112389589411e-05,-1.98959822749123e-05
-0.000676047842267027,0.00566206012142063,-1.3896674605565e-05,-8.53015773028498e-06
-0.000674617330707152,0.00567290816741634,-1.24367226044335e-05,3.72115496561346e-06
-0.000671458284345763,0.00568426881338768,-9.06530744618586e-06,1.56819770392513e-05
-0.0006645799079287,0.00569543872448437,-3.15020660751305e-06,2.79148219846265e-05
-0.000656807461786715,0.00570731197043133,4.52959927257926e-06,3.99686128151892e-05
-0.000649642983057677,0.00571484599798,1.2390621991431e-05,4.79507309920365e-05
-0.000641238727643414,0.00571433339800438,1.96637723820945e-05,4.8394239351878e-05
-0.000634539165171335,0.00570793185877394,2.62924561289626e-05,4.33431816860241e-05
-0.000629746951445755,0.00570391450547662,3.14765763741964e-05,3.81303361975529e-05
-0.000626981295763331,0.00570015941263195,3.39060272223707e-05,3.48537629751683e-05
-0.000626623667873363,0.00569477115242309,3.37303306859995e-05,3.14555415843688e-05
-0.000627923049206915,0.00569059882704012,3.267056590963e-05,2.6503062065774e-05
-0.000629270114259131,0.00568522248776093,3.1373499411231e-05,2.06924397214079e-05
-0.000632202662956873,0.0056776407764936,2.81521769893174e-05,1.34631934709637e-05
-0.000638270416156674,0.0056658152142653,2.1665864130655e-05,2.69746253827032e-06
-0.000646734276219265,0.00565255914047713,1.36806646267329e-05,-1.06950022616537e-05
-0.000653004685223382,0.00564347539207193,7.43313692271973e-06,-2.1870458255354e-05
-0.00065556768510149,0.00563597712731225,3.90298368638219e-06,-2.77606106222796e-05
-0.000658774415181542,0.00563354525766046,1.62642045883206e-06,-2.9860226428258e-05
-0.00065997842907777,0.00563632283427255,-2.41742614878332e-08,-2.87134547340186e-05
-0.000659608880258136,0.00564519200594378,3.24157766598042e-07,-2.00833142266767e-05
-0.000656676331560393,0.00566355023762883,3.14765114210526e-06,-1.84707864569035e-06
-0.000653994122385628,0.00568301711577279,5.85219621274868e-06,1.77607267245025e-05
-0.000655043164196203,0.00569111142701575,5.03341074765068e-06,2.5323035769174e-05
-0.000659632722117467,0.00568482909708196,1.66599313014941e-08,1.64752340436287e-05
-0.000666940252002493,0.0056673053304735,-7.11424609956152e-06,2.80180764416359e-07
-0.000673937837716212,0.00565514598221457,-1.42760867542357e-05,-1.17863738187051e-05
-0.000680744688555282,0.00565282140092977,-2.07552847319903e-05,-1.67996700848343e-05
-0.000685906451100495,0.00565217767072783,-2.62223831155842e-05,-1.85228228479257e-05
-0.000689399283492522,0.00564936433132674,-2.99806478378416e-05,-1.94605272349754e-05
-0.000691258948520359,0.00565217767072783,-3.15660297082465e-05,-1.92638272054872e-05
-0.000691223185731362,0.00565378699623269,-3.11026757113132e-05,-1.87329192438715e-05
-0.000687670748691007,0.00565285716371877,-2.86624872283553e-05,-2.05088408337456e-05
-0.000683391134941049,0.00564743314072091,-2.3964495254264e-05,-2.53634762383765e-05
-0.000677037279429273,0.00564459595946049,-1.70947961350184e-05,-3.06341754769202e-05
-0.000668311158914039,0.00564324889440828,-9.09214171626106e-06,-3.28737009089954e-05
-0.000660526791842389,0.00564614568031702,-1.53272327300574e-06,-3.04623519678808e-05
-0.000655102768844531,0.00565344128927238,4.34375084874476e-06,-2.40460077502933e-05
-0.000650990048109892,0.00566223893536561,8.31043122852394e-06,-1.64197157633676e-05
-0.000647354164561877,0.00566901002341569,1.13508483513967e-05,-1.15285796949621e-05
-0.000644302406567478,0.00566911731178268,1.48173059077802e-05,-1.10426615636508e-05
-0.000640034713747186,0.00567017827452292,1.86952039029964e-05,-1.16263403540309e-05
-0.000637495555728409,0.00567548308822412,2.10216348805774e-05,-7.81798869940174e-06
-0.000638973751006946,0.00568585429703321,1.99743405941847e-05,1.81820613525183e-06
-0.000641536750885054,0.00569742951973853,1.6366292453451e-05,1.32237739137e-05
-0.000645530262323037,0.00570862327269454,1.29283771128823e-05,2.18114029506025e-05
-0.000646841564586256,0.00571395192825508,1.10858080651559e-05,2.6774998895605e-05
-0.000648343601724124,0.00571714673740546,9.75031866919687e-06,2.98761370875154e-05
-0.000649976769088314,0.00572214160693536,7.6083355802136e-06,3.23616470582412e-05
-0.00065219406200612,0.00572496686726611,5.07092721848279e-06,3.45926643730034e-05
-0.000654602089798575,0.00572769676015954,2.96874999423285e-06,3.69871816119311e-05
-0.000656747857138387,0.00573182140182384,5.22184973181518e-07,3.95189752882255e-05
-0.000660443345334729,0.00573449169006894,-3.86165410883577e-06,4.1157065813621e-05
-0.000666761438057508,0.0057353738388642,-1.01232117531503e-05,4.1105111263486e-05
-0.000672912637764969,0.00573501621097423,-1.61729855524568e-05,3.98416397784295e-05
-0.000676524679453652,0.00573341880639903,-2.01408860916243e-05,3.79337845001875e-05
-0.000677907507294864,0.00573272739247843,-2.22119981724782e-05,3.47394031262627e-05
-0.000679731409533704,0.00572705302995759,-2.39457193948072e-05,2.94191183593732e-05
-0.00068224672569315,0.00572116409070278,-2.61762589000838e-05,2.25471535350499e-05
-0.000683188479136734,0.0057159546444389,-2.79121353665009e-05,1.57674701955084e-05
-0.000682270567552481,0.00571093593304967,-2.74121185029e-05,1.04736790420457e-05
-0.000679600279307382,0.00570925508196682,-2.42842159788289e-05,7.44748677216025e-06
-0.000674867670230131,0.00570889745407685,-2.00468134601935e-05,6.72964239615609e-06
-0.000670802633214154,0.00571012530983241,-1.62473723797625e-05,6.84600410137853e-06
-0.000667321721751792,0.00570884977035819,-1.27621946210283e-05,5.08445444985251e-06
-0.000662887135916181,0.00570509467751352,-8.9801826478922e-06,-2.76931286172987e-07
-0.000660395661616067,0.00569694076162224,-5.88752812827539e-06,-8.37801909487652e-06
-0.000658977070985858,0.00568881068759028,-4.93252635717172e-06,-1.67372212285328e-05
-0.000658297577994917,0.00568503175288628,-4.75058141188971e-06,-2.27776557350111e-05
-0.000655102768844531,0.00568342242738142,-1.43120685680205e-06,-2.42938763572994e-05
-0.000646936932023581,0.00568711791557776,6.83791424191818e-06,-2.06610419271725e-05
-0.000636565723214491,0.00569350753387854,1.73885469041458e-05,-1.49483953354132e-05
-0.000625968016741754,0.00569781098948783,2.68184253442973e-05,-1.26759966750197e-05
-0.00061802867758445,0.00569380555712018,3.52669841862508e-05,-1.61770655967683e-05
-0.000609266794280219,0.00568752322718639,4.49112674814562e-05,-2.16762356754705e-05
-0.000597441232051923,0.00568735633417108,5.56083109568609e-05,-2.44075356543525e-05
-0.000588393246435716,0.00568686757605479,6.43980912390448e-05,-2.51876357942483e-05
-0.000585246121003993,0.00568206344139954,6.84884725861706e-05,-2.86361723717107e-05
-0.000587272679047148,0.00567643676259737,6.6520355058481e-05,-3.55606282067836e-05
-0.000595259701923114,0.00567195449304309,5.78351607827903e-05,-4.10583686296693e-05
-0.000610005891919487,0.00567132268377082,4.33026711011399e-05,-4.1135096338048e-05
-0.000627410449231294,0.00567424331153889,2.64647685084425e-05,-3.7984492845224e-05
-0.000643157997319579,0.00567610297656673,1.07698546772188e-05,-3.68520807280622e-05
-0.000658404866361908,0.00567352805575896,-4.5327722272335e-06,-3.97532785741299e-05
-0.000675976316689033,0.00566855702808839,-2.25204364701612e-05,-4.41410767865321e-05
-0.000696444552924904,0.00566599402821028,-4.17801425546342e-05,-4.63607272892868e-05
-0.00070952181276809,0.00566867623738505,-5.49603188269751e-05,-4.46394725113026e-05
-0.00071085695689064,0.00567266974882303,-5.64918027748627e-05,-3.94765931436071e-05
-0.000703823608387924,0.00567956004616976,-4.94217824415949e-05,-3.2633718653909e-05
-0.000697267097071832,0.00568623576678251,-4.18104163893941e-05,-2.56241604300786e-05
-0.000693392794930505,0.00569324527342589,-3.77396122490675e-05,-1.8546590936981e-05
-0.000689291995125532,0.00569974218009366,-3.47314833571039e-05,-1.06067245489012e-05
-0.000685620348788521,0.00570938621219314,-2.9330874276756e-05,-1.59227969498736e-06
-0.000678372423551823,0.00571795736062272,-2.19555169430659e-05,8.24498014717719e-06
-0.000670838396003151,0.00572851930430647,-1.53172592582596e-05,1.95022954751987e-05
-0.000667631665923099,0.00574090515022905,-1.04268885979268e-05,3.27350252805482e-05
-0.000663030187072169,0.00575376783333825,-6.1128023452032e-06,4.56584908146719e-05
-0.000658500233799233,0.00575985942839738,-1.78040656791699e-06,5.36073909915634e-05
-0.000656676331560393,0.00576008592606103,1.09420138998233e-06,5.45513582892792e-05
-0.000657296219903005,0.00575718914015228,8.47994180829376e-07,5.21155777320517e-05
-0.000659143964001177,0.00575509105653113,-1.58778390938974e-06,5.17339053632065e-05
-0.000660884419732357,0.00575720106108195,-2.67281110240357e-06,5.49095951958506e-05
-0.000658822098900205,0.00576055084231799,5.16345805325058e-07,5.90605872337703e-05
-0.000651204624843873,0.00576162372598789,7.30485035752306e-06,6.17786012217804e-05
-0.000644826927472766,0.00576119457251993,1.42064308203577e-05,6.27357606311773e-05
-0.00064097646719077,0.00575956140515574,1.8604742291518e-05,6.18866775089745e-05
-0.000638794937061962,0.00575432811703253,2.09502601379806e-05,5.84797138524615e-05
-0.000636708774370478,0.00574668680111687,2.31590787820804e-05,5.23802961596314e-05
-0.000634419955874679,0.00573757921085234,2.57390025075929e-05,4.44935593052825e-05
-0.000632596053635839,0.00572738681598823,2.72979063156374e-05,3.54051045860987e-05
-0.000634372272156016,0.00571538243981495,2.65691312332705e-05,2.53055109632541e-05
-0.000636625327862819,0.00570369992874264,2.40851346501896e-05,1.57214007663124e-05
-0.000638926067288284,0.0056969884453409,2.15541492749371e-05,9.36206909862067e-06
-0.000640666523019464,0.00569331679900389,1.98618414880298e-05,6.96495549760376e-06
-0.000643694439154532,0.00568857226899697,1.80484005797375e-05,5.47840870481854e-06
-0.000646436252977625,0.00568345819017042,1.45012803013139e-05,8.03566589085253e-07
-0.000651311913210864,0.00567446980920254,9.09497641640701e-06,-7.83713707224885e-06
-0.000657796898948961,0.00566294227021588,3.6392400045003e-06,-1.67212661466233e-05
-0.000661695042949619,0.00565710101467973,-1.87007939000342e-07,-2.04188987563738e-05
-0.000663542787047791,0.00566191707026464,-2.93924865878684e-06,-1.58390339543642e-05
-0.000667750875219755,0.00567194257211343,-6.77488021160102e-06,-4.6842482424333e-06
-0.000673782865630559,0.00568167005072058,-1.28339142426698e-05,7.53647252143355e-06
-0.000680553953680632,0.00568860803178597,-1.98605319724633e-05,1.57577379668353e-05
-0.000686621706880433,0.00569242272927897,-2.53912456409509e-05,1.91083610408149e-05
-0.000687384646379032,0.0056916836316397,-2.77608893481378e-05,1.98141890893318e-05
-0.000687360804519701,0.00568838153412232,-2.70398393075923e-05,1.86168188415171e-05
-0.000685393851124874,0.00568268332974215,-2.46918698207646e-05,1.31785731866859e-05
-0.000682044069888834,0.00567145381399714,-2.24051097217667e-05,1.95867182672997e-06
-0.000679671804885376,0.00565677914957876,-2.07132537803597e-05,-1.20846814418733e-05
-0.000678002874732189,0.00564342770835326,-1.86846095316005e-05,-2.35366234101659e-05
-0.000675118009753109,0.00563682351331851,-1.53374286900306e-05,-2.96239720007976e-05
-0.000669252912357623,0.00563708577377115,-1.11420972260119e-05,-3.18880178785872e-05
-0.000665164033482315,0.00563247237399056,-7.5521850940288e-06,-3.35387205070724e-05
-0.000663852731219097,0.00562856230906023,-5.33165197949622e-06,-3.6931660655539e-05
-0.000662148038276913,0.00562384162091265,-4.13425411582568e-06,-4.3384458892233e-05
-0.00065978769420312,0.00561398301207918,-3.54944767752081e-06,-5.34073868391541e-05
-0.000660407582545732,0.0056001070499484,-3.6441404488226e-06,-6.6126758186195e-05
-0.000661265889481657,0.00558718476219086,-4.44481764984933e-06,-7.9189707430968e-05
-0.000661516229004635,0.00557814869750432,-5.65685654021986e-06,-8.97669390579439e-05
-0.000661957303402263,0.00557357106051272,-6.87794538600264e-06,-9.56205299074475e-05
-0.000662493745237216,0.00557137760945425,-7.41786133218428e-06,-9.59297897255536e-05
-0.000661242047622326,0.00557643208363247,-6.18930546732585e-06,-9.21933093287598e-05
-0.000656700173419724,0.00558362040422084,-2.71049407134434e-06,-8.79398972935343e-05
-0.000651586094593173,0.00558509859949938,1.99864256285927e-06,-8.59872829940117e-05
-0.000647199192476224,0.00558465752510175,6.45535525830391e-06,-8.55262874586998e-05
-0.000642740764781282,0.00559101138061353,1.02559336696753e-05,-8.27109084356303e-05
-0.000638914146358618,0.00560089383130633,1.34691787457162e-05,-7.41164075667161e-05
-0.000637233295275765,0.00561556849572471,1.52074678620836e-05,-5.87911919052561e-05
-0.00063732866271309,0.00563815865744106,1.46872107074035e-05,-3.76204908129267e-05
-0.000637698211532725,0.00566591058170262,1.3382301989894e-05,-1.28549588433908e-05
-0.000637733974321721,0.00569083724563344,1.37233090552457e-05,1.14082509715618e-05
-0.000636255779043184,0.0057098868912391,1.52508295571206e-05,3.07925882973492e-05
-0.000635349788388597,0.00572717223925425,1.44699168959645e-05,4.44578261963745e-05
-0.000641071834628095,0.00573961768982516,9.52735411622802e-06,5.60299602274945e-05
-0.000647962131974824,0.00575338636358895,2.86365369658143e-06,6.9093340215488e-05
-0.000651717224819495,0.0057691815953959,-2.10462304665984e-06,8.27658948630837e-05
-0.000654661694446903,0.00578112636692085,-4.89674105311984e-06,9.33705015453073e-05
-0.000656890908294374,0.00578876768283651,-6.88947997043903e-06,9.94167710236295e-05
-0.000657820740808293,0.00579355989656209,-8.24474862315776e-06,0.000102632699372313
-0.000658261815205921,0.00579594408249522,-8.17840408868549e-06,0.000104449291021732
-0.000656080285077112,0.00579818521727235,-7.02357183103993e-06,0.000104058337287963
-0.00065518621535219,0.00579620634294786,-5.63449625876849e-06,0.000100567929230488
-0.000653886834018638,0.00579007898509973,-3.44742422938282e-06,9.48294221101583e-05
-0.000649166145871052,0.0057859305015761,5.50915954844464e-07,8.77586591463091e-05
-0.000643742122873194,0.00577846799960542,5.20956119403365e-06,7.83799898415998e-05
-0.000643217601967907,0.0057645681956153,7.76030142907128e-06,6.51883474903349e-05
-0.000643384494983226,0.00574996505677492,7.19558948911767e-06,4.8674824971678e-05
-0.000644409694934469,0.00573483739702924,5.45061340225147e-06,3.10856281976575e-05
-0.000645947494861334,0.00571796928155239,5.00856083595722e-06,1.42201415487158e-05
-0.000644612350738785,0.00570285354273638,6.6185017169496e-06,-1.1425210871309e-06
-0.00064260963455496,0.00569235120370097,9.28175790955116e-06,-1.40446466727258e-05
-0.000640380420707489,0.00568397079014604,1.10449397884335e-05,-2.3323096670147e-05
-0.000641942062493686,0.00567792687880557,9.88775257584884e-06,-2.91507425824909e-05
-0.000647997894763821,0.00567503009289682,5.47338650865587e-06,-3.323966126342e-05
-0.000652837792208063,0.00567283664183835,3.1696653368907e-07,-3.67360201417951e-05
-0.000655007401407206,0.0056707385582172,-2.09695723950302e-06,-3.87894923008137e-05
-0.000654900113040215,0.00567272935347136,-5.46011215387143e-07,-3.80476680827738e-05
-0.000651443043437185,0.00567529235334947,3.72629967091321e-06,-3.49270123938325e-05
-0.000645220318151731,0.00568017993451237,9.71142430675334e-06,-3.12866856018214e-05
-0.00063771013246239,0.00568431649710634,1.75833992613426e-05,-2.78511693213288e-05
-0.000630044974687396,0.00568902526432426,2.66725290199942e-05,-2.28597072704799e-05
-0.000622558630857386,0.00569785867320649,3.46667032922677e-05,-1.37920347527672e-05
-0.000617194212507857,0.00571230683996122,3.99141821240342e-05,-2.86482871298495e-07
-0.000615131891675704,0.00572825704385382,4.27119738653765e-05,1.46885569365106e-05
-0.000616574324165244,0.0057380083643203,4.27401256296646e-05,2.62224396947814e-05
-0.000622487105279392,0.00574233566178892,3.67268174246252e-05,3.0083969801722e-05
-0.000638306178945671,0.00573836599221027,2.12500225443791e-05,2.49917294192447e-05
-0.000662517587096547,0.00572661195555997,-1.83917578941626e-06,1.34842340041378e-05
-0.000685954134819158,0.0057118300027746,-2.45624572754741e-05,6.00884600079158e-07
-0.000700366538784894,0.00570318732876702,-3.87140011977336e-05,-9.41105599259043e-06
-0.000704336208363545,0.00569685731511458,-4.26224000712433e-05,-1.58983220409665e-05
-0.000705277961807129,0.00569070611540712,-4.16453698499192e-05,-2.10255017072296e-05
-0.000705134910651142,0.00568503175288628,-4.19472611153746e-05,-2.60264169724076e-05
-0.000707793277966575,0.00568213496697753,-4.43049541781158e-05,-2.94011859069177e-05
-0.000709557575557087,0.00568152699956459,-4.4622818641351e-05,-2.98902475460529e-05
-0.000705063385073148,0.00568063292983967,-4.00328573592452e-05,-2.97979055916942e-05
-0.000697541278454141,0.00567749772533761,-3.26722247404422e-05,-3.26785426657464e-05
-0.00069280866937689,0.0056718472046761,-2.65188699064989e-05,-3.78607681561584e-05
-0.000688576739345595,0.00566933188851666,-2.23181196550455e-05,-4.05538427102431e-05
-0.000684630911626274,0.00567033324660857,-1.79609662662916e-05,-3.87265640664647e-05
-0.000679600279307382,0.00567201409769142,-1.29407048637757e-05,-3.65239991880017e-05
-0.000677216093374258,0.00566970143733629,-9.23252377580393e-06,-3.77703535469916e-05
-0.000674748460933474,0.00566980872570328,-7.24579852317639e-06,-3.86734977344122e-05
-0.000671637098290747,0.00567574534867676,-4.06093922657007e-06,-3.18487725926343e-05
-0.000666308442730215,0.00568819079924767,2.42010193095526e-06,-1.72482812553862e-05
-0.00065853599658823,0.00570230517997176,9.76191458049143e-06,-4.13397700346612e-06
-0.000654721299095231,0.00570597682630878,1.37990608307531e-05,-5.49600350155622e-07
-0.000654959717688544,0.00570013557077262,1.38612743117467e-05,-4.66610993467895e-06
-0.000656127968795774,0.00569484267800109,1.28679334228607e-05,-8.78184547532383e-06
-0.000655865708343131,0.00569609437561598,1.29969088788566e-05,-8.42143512638359e-06
-0.000655686894398146,0.00569988523124964,1.36838857524052e-05,-4.32521944580363e-06
-0.00065488819211055,0.00570361648223498,1.38083939579841e-05,1.71868029934487e-06
-0.00065556768510149,0.00571059022608937,1.36023430575508e-05,8.69249267247713e-06
-0.000655794182765137,0.00571734939320978,1.3788534324399e-05,1.50968033660354e-05
-0.000654268303767938,0.00572083030467214,1.43317736955188e-05,1.98424760000961e-05
-0.000654006043315294,0.00572390590452587,1.46130615871329e-05,2.43104066422854e-05
-0.000655806103694803,0.00573025976003765,1.38125478622389e-05,3.03312863092199e-05
-0.000657630005933643,0.00573486123888858,1.09532395032506e-05,3.62178890668956e-05
-0.000662112275487916,0.00573642288067477,5.78657509634586e-06,3.8113616154294e-05
-0.000669050256553307,0.00573302541572007,-8.91192360436966e-08,3.5559647152159e-05
-0.000672709981960653,0.00572838817408014,-4.23586290573173e-06,3.23026438640492e-05
-0.000673353712162597,0.00572655235091164,-5.99149577572417e-06,3.0764536288277e-05
-0.000675129930682774,0.00572471652774313,-7.05827032678308e-06,2.92205187565803e-05
-0.000676524679453652,0.00571986470936922,-9.04012578501093e-06,2.60611994101123e-05
-0.000678849260738448,0.00571626458861021,-1.14392349369366e-05,2.34757244424237e-05
-0.000679516832799723,0.00571652684906285,-1.27019425480552e-05,2.42005663410917e-05
-0.00067878965609012,0.00571889911406631,-1.22934003565585e-05,2.69700942483864e-05
-0.000677633325912555,0.00571837459316102,-1.08999494386584e-05,2.81977025801318e-05
-0.00067524913997943,0.00571547780725228,-9.20122016131547e-06,2.66958474887453e-05
-0.00067274574474965,0.00571208034229757,-7.30148644828415e-06,2.38027990039619e-05
-0.000670659582058166,0.00570850406339789,-5.16407781820442e-06,1.97930727110611e-05
-0.000668454210070026,0.00569858584991609,-3.04001548431114e-06,1.32580558729547e-05
-0.00066583160554359,0.00568829808761466,-1.44111397178017e-06,4.04030063494833e-06
-0.000664997140466996,0.00567953620431043,-7.02109431225575e-07,-5.75411008080817e-06
-0.00066468719629569,0.00566946301874298,-3.0308591167509e-07,-1.40534030967813e-05
-0.000662350694081228,0.00566027198197079,1.12765730031988e-06,-2.02387643193997e-05
-0.000658857861689202,0.00565644536354812,4.36539065491289e-06,-2.41494312325109e-05
-0.000654828587462222,0.00565509829849591,8.17624762052857e-06,-2.56861034480785e-05
-0.000652480164318094,0.00565254721954746,1.03679071905545e-05,-2.57510626992671e-05
-0.000651228466703204,0.00565077100102729,1.05665955421567e-05,-2.55581612777076e-05
-0.000651133099265879,0.00565176043818953,1.09680091946764e-05,-2.43256610220518e-05
-0.000647807159889171,0.00565682683329742,1.37947409505523e-05,-1.95879045043363e-05
-0.000642097034579339,0.00566251311674792,1.88977483487607e-05,-1.08718538102502e-05
-0.000636220016254188,0.00567014251173392,2.44976277778387e-05,-1.37903829008583e-06
-0.000631380118809945,0.00567834411134387,2.92796869116043e-05,5.37018408493429e-06
-0.000627386607371962,0.00568009648800471,3.26244440171281e-05,9.19475891983109e-06
-0.000626111067897741,0.00568122897632295,3.34228240336186e-05,1.20235296412914e-05
-0.000629437007274449,0.00568250451579717,3.02002343229931e-05,1.43508602811979e-05
-0.000636243858113519,0.00568357739946707,2.27650362878464e-05,1.51896252936955e-05
-0.000645482578604375,0.00568225417627419,1.29578248850713e-05,1.4964335553534e-05
-0.00065526966185985,0.00568122897632295,3.37443870389296e-06,1.56573269366792e-05
-0.000662422219659222,0.0056818011809469,-4.43839420269055e-06,1.72158966055748e-05
-0.000668072740320727,0.00568125281818228,-1.06106186782577e-05,1.59883195384443e-05
-0.000673663656333903,0.00567330155809531,-1.62073211622573e-05,8.51648164300481e-06
-0.000679135363050423,0.00565774474488167,-2.18923067697753e-05,-4.11515658271601e-06
-0.000683426897730046,0.00564510855943612,-2.70445323721991e-05,-1.73247062673636e-05
-0.00068665746966943,0.00563657317379553,-3.02171808733996e-05,-2.7766416841904e-05
-0.000686633627810098,0.00562610659754912,-3.06310584148861e-05,-3.52449571441185e-05
-0.000685119669742564,0.00562006268620865,-2.90186736110973e-05,-4.02217134884512e-05
-0.000681662600139534,0.00562096867686323,-2.67719126201132e-05,-4.17983723446221e-05
-0.000679743330463369,0.00562353167674134,-2.45633442263617e-05,-3.92473701603515e-05
-0.000677251856163255,0.00562572512779982,-2.22202876292587e-05,-3.38359338133299e-05
-0.000674259702817184,0.00563421282972174,-1.97181523967019e-05,-2.74336695431285e-05
-0.000671243707611782,0.00564352307579059,-1.7648003536385e-05,-2.02013463383093e-05
-0.000670635740198835,0.0056495193034124,-1.64725839483654e-05,-1.14002924684722e-05
-0.000669550935599264,0.00566018853546313,-1.56375463576038e-05,-1.98364334950378e-06
-0.000666487256675199,0.00566964183268796,-1.37826556229146e-05,5.67828743568804e-06
-0.000663006345212838,0.00567425523246856,-9.99081484041511e-06,1.09838020249617e-05
-0.000657701531511636,0.00568081174378465,-4.82239916542856e-06,1.6275543611635e-05
-0.000652182141076454,0.00568914447362092,3.99412866701721e-08,2.40525836897538e-05
-0.000648748913332755,0.00569968257544533,3.29917300862298e-06,3.42720896210248e-05
-0.000646710434359934,0.00571320090968614,5.07339255660296e-06,4.51271725296947e-05
-0.000645017662347416,0.00572279725806697,6.322747828277e-06,5.50113359998869e-05
-0.000643825569380854,0.00573052202049029,7.59498533786303e-06,6.22948885776512e-05
-0.000642192402016664,0.00573563609931684,8.72539172632774e-06,6.41849333035004e-05
-0.000640952625331439,0.00572938953217206,9.48543140345928e-06,5.78654678500974e-05
-0.000640404262566821,0.00571621690489154,9.96899497283185e-06,4.31896308665564e-05
-0.00063972476957588,0.00569741759880886,1.05395677708888e-05,2.33151562505603e-05
-0.00063809160221169,0.00567864213458551,1.20035723230808e-05,2.41550044224902e-06
-0.000633442439642098,0.00566145215400768,1.55316898810222e-05,-1.67948331818004e-05
-0.000628066100362903,0.00564454827574183,2.14531797920062e-05,-3.36043753044337e-05
-0.000621306933242496,0.00563256774142788,2.81897969802052e-05,-4.84076629442799e-05
-0.000615358389339351,0.00562135014661253,3.34535187177877e-05,-6.15168289801361e-05
-0.000611352956971702,0.00561150345870873,3.66211605476731e-05,-7.23073303082223e-05
-0.000610005891919487,0.00560679469149081,3.87380890259843e-05,-7.94040949479938e-05
-0.000608933008249581,0.00560483965902565,3.98429649948096e-05,-8.20564693424697e-05
-0.000609767473326175,0.005608427858855,3.7677972011455e-05,-8.11883181511698e-05
-0.000617420710171503,0.00561329159815857,2.99949125385092e-05,-7.86364189663853e-05
-0.000630664863030008,0.00561620030499699,1.72748647420657e-05,-7.55671737230547e-05
-0.000645709076268022,0.00562188658844749,2.38278301118118e-06,-7.2140573833268e-05
-0.000657987633823611,0.00562946829971482,-1.15850802631485e-05,-6.82619135127679e-05
-0.00066890720539732,0.00563380751811311,-2.2357578168031e-05,-6.35931744869122e-05
-0.000676929991062283,0.0056414369130991,-2.86978739887528e-05,-5.67719357480844e-05
-0.000677657167771886,0.00565662417749311,-3.12095742804082e-05,-4.56851899612069e-05
-0.000678134004958511,0.00567353997668862,-3.24821185840013e-05,-2.92160963009409e-05
-0.00068224672569315,0.00569467578498577,-3.49192156063129e-05,-8.63648269352052e-06
-0.000684785883711927,0.00571842227687968,-3.83211760803475e-05,1.26922137599966e-05
-0.00068646673479478,0.00573784147130498,-4.04490781145072e-05,3.09260822630894e-05
-0.000685775320874174,0.00575227771713005,-3.96499668001108e-05,4.3925378323756e-05
-0.000682091753607497,0.00576247011199415,-3.59712549804883e-05,5.29980944239175e-05
-0.000676465074805324,0.00577153001854002,-3.02321455348286e-05,6.20349782612728e-05
-0.00066947941002127,0.00578591858064643,-2.34539762618597e-05,7.32938401430184e-05
-0.000662696401041532,0.00579626594759619,-1.70612007844355e-05,8.38530492744334e-05
-0.000657975712893946,0.00580091511016578,-1.20779970052123e-05,8.79303649976338e-05
-0.000653874913088972,0.00579763685450773,-7.79797141676714e-06,8.34710286911478e-05
-0.000648641624965765,0.00579012666881839,-2.50938091120797e-06,7.49119647468222e-05
-0.000641000309050102,0.00578403507375926,4.0961939854033e-06,6.82116411864385e-05
-0.000635767020926894,0.00577995811581362,1.04443187467638e-05,6.44319719894025e-05
-0.000630748309537668,0.00577628646947661,1.54747660767319e-05,5.99606547921611e-05
-0.000625276602821148,0.0057699445348945,2.03114774260078e-05,5.2340049397414e-05
-0.000619041956606028,0.0057608250237003,2.67335554902142e-05,4.37601107092132e-05
-0.000611555612776018,0.00575511489839046,3.4780655804418e-05,3.8429923628497e-05
-0.000603318250377074,0.00575555597278809,4.25582053813252e-05,3.79652323532325e-05
-0.000598657166877816,0.00575840507497818,4.77230063052514e-05,4.00593377052817e-05
-0.000597500836700251,0.00575748716339392,4.8591147518821e-05,4.08622797754755e-05
-0.000601375138841578,0.00575519834489812,4.46104037899368e-05,3.80770542524517e-05
-0.000610339677950125,0.0057501081079309,3.66202471817907e-05,3.21793080051233e-05
-0.000620603598392224,0.00574145351299366,2.62555654411659e-05,2.5019282384481e-05
-0.000630903281623321,0.00573388372265599,1.46149626568671e-05,1.72291202031009e-05
-0.000645589866971366,0.00572385822080721,2.10643092919335e-06,7.46095698424221e-06
-0.000657415429199661,0.0057106140679487,-1.01242423737667e-05,-5.16000424947106e-06
-0.00066621307529289,0.00569700036627056,-1.99039080988431e-05,-1.83797153047684e-05
-0.000673913995856881,0.0056874517016084,-2.61799175985051e-05,-2.80643594614811e-05
-0.00067783598171687,0.0056817654181579,-3.02784611826594e-05,-3.2373924824837e-05
-0.000681221525741906,0.00568013225079371,-3.35094564780177e-05,-3.33518343329329e-05
-0.000682282488482147,0.00568116937167462,-3.4506675867165e-05,-3.35659919191709e-05
-0.00067908767933176,0.00568031106473869,-3.10856797887597e-05,-3.22016838102411e-05
-0.000673115293569284,0.0056859615854002,-2.43552710287135e-05,-2.5818837704998e-05
-0.000666546861323527,0.00569956336614867,-1.84503590114859e-05,-1.29938816730517e-05
-0.000664675275366025,0.00571440492358237,-1.56594917807845e-05,2.49697919920783e-06
-0.000663352052173141,0.00572381053708854,-1.41317237455523e-05,1.34723691962127e-05
-0.000660240689530414,0.00572482381611012,-1.13829711711451e-05,1.46976943081979e-05
-0.000657606164074311,0.00571794543969306,-7.71050506531649e-06,7.18812107985678e-06
-0.000654351750275597,0.00570712123555668,-4.47322705876107e-06,-2.6502098075379e-06
-0.000651288071351532,0.00569976602195299,-1.31291742815269e-06,-8.83363244751105e-06
-0.000648045578482483,0.00569778714762849,2.18421315144964e-06,-1.09860722280866e-05
-0.000647294559913549,0.00569611821747531,3.69910951976925e-06,-1.32812040500959e-05
-0.00065037015976728,0.00568933520849557,6.90535974689418e-07,-1.8843056759488e-05
-0.000655400792086172,0.00568051372054301,-4.55344228339215e-06,-2.70631490525596e-05
-0.000657892266386286,0.00567154918143446,-5.98793304858276e-06,-3.66058522177795e-05
-0.000652754345700404,0.00566031966568945,-8.37301437430607e-07,-4.81431395172692e-05
-0.0006448150065431,0.00564582381521605,7.45157869518917e-06,-6.18747431689815e-05
-0.000637865104548043,0.00563280616002119,1.44539872569406e-05,-7.43250243873554e-05
-0.000633227862908117,0.00562756095096832,1.97924052861276e-05,-8.09679416511386e-05
-0.00062859062126819,0.00562660727659507,2.4769492094608e-05,-8.17175289839817e-05
-0.00062532428653981,0.00562688145797738,2.78811415201853e-05,-8.08627860767653e-05
-0.000628054179433237,0.00562714371843002,2.62031138042312e-05,-8.12805039990012e-05
-0.000633800067532067,0.005627429820742,2.00038684172803e-05,-8.1445178161946e-05
-0.000641953983423351,0.00563046965780673,1.27282808172579e-05,-7.870628680152e-05
-0.000648343601724124,0.0056369665644745,6.83559992870889e-06,-7.25153075792339e-05
-0.00065230135037311,0.005646431782629,2.41458231219704e-06,-6.31131876791556e-05
-0.000656163731584771,0.00565998587965881,-5.08229243987176e-07,-5.00661553170885e-05
-0.000657451191988658,0.00567739043697062,-1.38395382367444e-06,-3.44404386524011e-05
-0.000657165089676683,0.00569106374329708,-1.07737092160398e-06,-1.99449011902445e-05
-0.000657749215230299,0.00570197139394113,-1.43412469394727e-06,-8.79054858822611e-06
-0.00065921548957917,0.00571589503979057,-2.24711726872756e-06,2.01933105337324e-06
-0.00065853599658823,0.00573010478795199,-1.37965042272778e-06,1.68964997317383e-05
-0.000656223336233099,0.00574806962895808,1.22051815467593e-06,3.50153062692276e-05
-0.00065499548047754,0.00576505695373159,2.45794079068819e-06,5.10099607037135e-05
-0.000658083001260936,0.00577870641819873,4.46324892657415e-07,6.21958020163629e-05
-0.000660491029053392,0.00578637157597372,-2.72634344434458e-06,7.13119799026992e-05
-0.000663232842876484,0.00579710041267278,-4.45579179318391e-06,8.11222208392869e-05
-0.000664639512577028,0.0058074954633412,-5.36368104607538e-06,8.98956100385895e-05
-0.000665497819512952,0.00581212078405146,-7.12918709967332e-06,9.44429423975871e-05
-0.000668191949617383,0.00581390892350131,-8.69100117166402e-06,9.50188807905779e-05
-0.000668001214742733,0.0058124545700821,-7.76817906341347e-06,9.44205966645137e-05
-0.000664186517249734,0.00581358705840034,-5.00430344084031e-06,9.36000332495533e-05
-0.000663197080087488,0.00581160818407584,-3.37416335928732e-06,9.07051287255638e-05
-0.000664603749788031,0.00580395494723051,-3.8831402492082e-06,8.3818500074153e-05
-0.000665235559060309,0.00579372678957741,-4.90362809885421e-06,7.26210064964325e-05
-0.000666081945066568,0.00577998195767295,-5.75712549328797e-06,5.79291770132211e-05
-0.000668299237984373,0.00576398407006169,-7.7184801086583e-06,4.16372126066855e-05
-0.0006717920703764,0.00574947629865863,-1.06196154094088e-05,2.68555859412501e-05
-0.000672531168015669,0.00573853288522559,-1.14597787306988e-05,1.60463649445168e-05
-0.000669014493764311,0.00573203597855782,-8.20928397724518e-06,8.64500285866416e-06
-0.000663912335867425,0.00572607551372501,-2.9574149816188e-06,1.88381134900371e-06
-0.000661182442973998,0.0057175162862251,7.16095689480316e-07,-5.90010092640204e-06
-0.00065891746633753,0.00570918355638883,2.14327216927044e-06,-1.4034337022612e-05
-0.000657904187315952,0.00570329461713401,3.36167497606206e-06,-2.14670922555866e-05
-0.000655877629272796,0.00569628511049063,5.43617983461904e-06,-2.82152247207876e-05
-0.000654602089798575,0.00568904910618359,7.16344132459851e-06,-3.43097941763508e-05
-0.000654172936330613,0.00568512712032361,7.31979520152578e-06,-3.87566030075532e-05
-0.000654828587462222,0.00568406615758336,6.2882456591223e-06,-4.05968560241114e-05
-0.000656235257162765,0.00568373237155273,4.94393907226012e-06,-4.03445749196232e-05
-0.000658857861689202,0.00568310056228045,3.29015016975861e-06,-3.96235848604496e-05
-0.000659942666288773,0.00568372045062306,9.82563473564611e-07,-3.97136555439901e-05
-0.00066237453594056,0.00568347011110008,-1.62086213469859e-06,-4.08282293355799e-05
-0.000665521661372284,0.00567941699501377,-3.72993664950268e-06,-4.24621897599612e-05
-0.00066583160554359,0.00567804608810223,-5.0417698621459e-06,-4.41264307139269e-05
-0.000666904489213496,0.00567661557654235,-5.78948671741598e-06,-4.58047334642824e-05
-0.000666475335745533,0.00567429099525756,-6.13392593002939e-06,-4.74712299106864e-05
-0.000667071382228814,0.00567272935347136,-6.04754027794739e-06,-4.79151690035346e-05
-0.000666189233433558,0.00567542348357579,-5.65785665036063e-06,-4.48007693887905e-05
-0.000665414373005293,0.00568319592971777,-5.16543668174437e-06,-3.69770788296472e-05
-0.000664329568405722,0.00569347177108954,-4.39951295467232e-06,-2.63673230504159e-05
-0.000663173238228156,0.00570158992419183,-2.95460024642013e-06,-1.62750087458031e-05
-0.000660824815084029,0.00570968423543478,-9.8195987082646e-07,-7.96516341631158e-06
-0.000658750573322211,0.0057182077001457,4.96378885271951e-07,-4.08109752006152e-07
-0.000659060517493517,0.00572259460226265,3.916636515342e-07,6.63581925407395e-06
-0.000660562554631385,0.00572619472302167,-1.35807996099641e-06,1.14035055806744e-05
-0.000662124196417582,0.00572942529496105,-3.53451820298571e-06,1.29173934896576e-05
-0.000663220921946819,0.00572725568576191,-4.3641876933396e-06,1.30615546878296e-05
-0.000660812894154363,0.00572655235091164,-2.66035538664639e-06,1.41485836635894e-05
-0.000656855145505377,0.00572900806242276,1.23243668052507e-06,1.56808943972822e-05
-0.000652265587584113,0.0057281259136275,5.45706156217099e-06,1.56616651691515e-05
-0.000649642983057677,0.00572485957889912,8.10095288974741e-06,1.4581399495583e-05
-0.000647962131974824,0.00572572980676471,8.99003020371352e-06,1.56817184356945e-05
-0.000647258797124553,0.00573062930885728,9.68061712717027e-06,2.06254218771902e-05
-0.000645172634433069,0.00573514734120055,1.1429481739886e-05,2.67365350100109e-05
-0.000642895736866935,0.00573713813645471,1.37525455946005e-05,2.98669775522155e-05
-0.000640058555606517,0.00573573146675417,1.54138994843137e-05,2.90817794577161e-05
-0.000639784374224208,0.00573383603893733,1.60584008614064e-05,2.71209813872541e-05
-0.000639665164927552,0.00573109422511424,1.59887568509168e-05,2.65499217237623e-05
-0.000639689006786883,0.00573073659722427,1.49838544154758e-05,2.6938022443212e-05
-0.000642263927594657,0.00573022399724865,1.26295553101171e-05,2.63288530594631e-05
-0.000644743480965106,0.00572674308578629,9.57717870954027e-06,2.42657729153391e-05
-0.000646901169234584,0.00572308336037894,7.07551272655209e-06,2.20090142554933e-05
-0.000648975410996402,0.00572096143489846,5.11876142545318e-06,2.00958495896444e-05
-0.000650608578360592,0.00571740899785811,2.37551883726096e-06,1.72853767498954e-05
-0.000654757061884228,0.00571123395629131,-1.6901723649774e-06,1.24906485508235e-05
-0.000659132043071511,0.00570429597522592,-5.89408986268914e-06,6.36079108218153e-06
-0.000661003629029013,0.00569710765463755,-9.09351894522548e-06,-2.8681096887414e-07
-0.000663960019586087,0.00568819079924767,-1.16979112963271e-05,-8.47636872770881e-06
-0.000666451493886202,0.00567548308822412,-1.46151973407541e-05,-1.94693105069711e-05
-0.000669050256553307,0.0056635621585585,-1.76450633312971e-05,-3.13988447370761e-05
-0.000670945684370141,0.00565425191248965,-1.98517486644454e-05,-3.98682452633886e-05
-0.000671780149446735,0.00564955506620139,-2.08440358021414e-05,-4.2816287647086e-05
-0.000671160261104122,0.00564973388014638,-2.07551027841269e-05,-4.29705352118252e-05
-0.000669598619317926,0.00564696822446395,-1.94022659062139e-05,-4.40506563084023e-05
-0.00066651109853453,0.00564466748503849,-1.6334276606196e-05,-4.5879875928878e-05
-0.000660908261591688,0.0056448701408428,-1.1633571979577e-05,-4.50479146858188e-05
-0.000656008759499118,0.00564892325692911,-6.34388153172235e-06,-3.96492746036131e-05
-0.00065115694112521,0.0056566957030711,-2.33044175731124e-06,-3.13924529089207e-05
-0.000650608578360592,0.00566456351665041,-1.54322668080559e-06,-2.31108154115614e-05
-0.000652861634067394,0.00567028556288991,-4.41670228386073e-06,-1.60193580806733e-05
-0.000657069722239359,0.00567553077194278,-8.76613559530885e-06,-9.86776370660901e-06
-0.000659430066313151,0.00568130050190094,-1.13853010103975e-05,-4.20585418157021e-06
-0.000659263173297833,0.00568579469238488,-1.1146764289403e-05,1.52685008748362e-06
-0.000656855145505377,0.00569154058048371,-9.35667939892038e-06,8.26858510247615e-06
-0.000654029885174625,0.0056992772638367,-6.77297453553505e-06,1.66210244761859e-05
-0.000649893322580655,0.0057087424819912,-2.16751269015584e-06,2.61285610670883e-05
-0.000641799011337698,0.00571749244436577,5.09332978058608e-06,3.5876876833973e-05
-0.000633859672180395,0.00572556291374939,1.29829053278797e-05,4.55072135233455e-05
-0.000627899207347584,0.00573552881094985,1.91804303075932e-05,5.50395669178822e-05
-0.000622558630857386,0.0057441118803091,2.40437670500276e-05,6.38829121254323e-05
-0.000617516077608828,0.00574902330333133,2.90110437928643e-05,7.06106670277232e-05
-0.00061361793360817,0.00575195585202908,3.30460670240647e-05,7.36913482419572e-05
-0.000613224542929205,0.0057501796335089,3.31877698827526e-05,7.202408523109e-05
-0.000617897547358128,0.00574301515477986,2.83883283682113e-05,6.50205045511659e-05
-0.00062570575628911,0.00572936569031272,2.06840970678006e-05,5.31395806950032e-05
-0.000633919276828723,0.00571498904913599,1.26885693094513e-05,3.86894962436657e-05
-0.000640153923043842,0.00570199523580046,5.85404834054584e-06,2.50290236256017e-05
-0.00064538721116705,0.00568915639455058,9.09545644940252e-07,1.36983117918294e-05
-0.000649201908660049,0.00567746196254861,-2.29570026824225e-06,2.59619190422827e-06
-0.000651574173663507,0.0056639436283078,-5.53091190708429e-06,-1.16067831885692e-05
-0.000657117405958021,0.00564596686637204,-1.05890741934663e-05,-2.8937188860926e-05
-0.000663340131243475,0.00562914643461385,-1.66364532148056e-05,-4.53145053819047e-05
-0.000668084661250392,0.00561739239796355,-2.10968660625778e-05,-5.68866484204284e-05
-0.000669634382106923,0.00561074051921013,-2.31610825244578e-05,-6.36873178066341e-05
-0.00067092184251081,0.00560630593337452,-2.39455256301354e-05,-6.782193704828e-05
-0.000670623819269169,0.00560432705905003,-2.29795672226314e-05,-6.97266392355643e-05
-0.000664615670717696,0.00560570988689124,-1.7725538279317e-05,-6.85673437641687e-05
-0.000655388871156506,0.0056080106263167,-7.89186390661695e-06,-6.529119784454e-05
-0.000645351448378053,0.00561317238886192,2.65120118656117e-06,-6.20331532967251e-05
-0.000637638606884396,0.00561518702597541,1.02198936482258e-05,-5.82613667812283e-05
-0.000632572211776508,0.00562360320231934,1.52621184922666e-05,-5.08032239920918e-05
-0.000628829039861503,0.00563592944359359,1.98130869667044e-05,-3.89868473072023e-05
-0.000625777281867104,0.00564727816863526,2.31272337586462e-05,-2.67987967476685e-05
-0.000625598467922119,0.00565774474488167,2.25353723467461e-05,-1.79521363980766e-05
-0.000632286109464533,0.00566332373996518,1.72994339948889e-05,-1.15242802113747e-05
-0.000640475788144814,0.00567017827452292,9.04324923509991e-06,-5.22522562896114e-06
-0.000649917164439986,0.00567594800448108,-5.87186365586785e-07,-4.83352589135016e-07
-0.000659692326765795,0.00567613873935573,-1.00562330455041e-05,-1.07383204429951e-07
-0.00066727403803313,0.00567475591151451,-1.65311050751651e-05,-1.79055739683295e-06
-0.000667476693837446,0.00567910705084247,-1.72943521724307e-05,1.58442370089455e-06
-0.000662827531267853,0.00569171939442869,-1.27611939727153e-05,1.41500223065145e-05
-0.000657641926863308,0.00571132932372864,-6.01636149878385e-06,3.25634052672473e-05
-0.000650155583033298,0.00572873388104045,6.00930707487686e-07,5.01271337710911e-05
-0.000644576587949788,0.00574151311764199,6.54159310188269e-06,6.24997074527784e-05
-0.000640654602089799,0.00574928556378398,1.11328882973785e-05,6.8323844703391e-05
-0.000638425388242327,0.00574834381034039,1.32140792578644e-05,6.75755746183386e-05
-0.000638556518468649,0.00574246679201524,1.29866702816637e-05,6.19028878421926e-05
-0.000640475788144814,0.00573715005738437,1.19525786250161e-05,5.46709809185835e-05
-0.000641477146236726,0.00573189292740184,1.05189937722287e-05,4.80191911028122e-05
-0.000644111671692829,0.00572333369990192,7.71702058118389e-06,4.07417955815717e-05
-0.000649118462152389,0.00571498904913599,3.71741970345612e-06,3.10156791387361e-05
-0.000651860275975482,0.00570650134721406,3.70858615093914e-07,2.02002365243203e-05
-0.000653624573565994,0.00569738183601986,-1.50157922364502e-06,1.16266220094435e-05
-0.000655555764171825,0.00569186244558468,-3.15897038208263e-06,5.97597179256679e-06
-0.000658059159401605,0.00568808351088068,-5.30773238165269e-06,6.11867337332757e-08
-0.000658440629150905,0.00567935739036544,-6.59870809839511e-06,-9.39842101731793e-06
-0.000658226052416924,0.00566688809793521,-6.07860078553332e-06,-2.22015848376537e-05
-0.000657320061762337,0.00565435920085664,-5.12131921781642e-06,-3.51186593529477e-05
-0.000657129326887687,0.00564645562448833,-5.26153008055719e-06,-4.46602566388285e-05
-0.000657379666410665,0.0056433800246346,-5.82729387177185e-06,-4.90215919370412e-05
-0.000656688252490059,0.00564365420601691,-5.53736371883858e-06,-4.84726194469341e-05
-0.000656449833896746,0.00564801726627453,-4.92280021528256e-06,-4.48261369091584e-05
-0.0006558418664838,0.00565456185666095,-5.1462431820853e-06,-4.03150627945492e-05
-0.000655937233921125,0.0056592944657382,-5.72124009316874e-06,-3.6272233527854e-05
-0.000655698815327812,0.00566288266556756,-5.64990836013651e-06,-3.23409451097591e-05
-0.000655925312991459,0.00566958222803964,-5.81300049589985e-06,-2.67439345470511e-05
-0.000656497517615409,0.00568099055772963,-7.73817694174945e-06,-1.77056514186658e-05
-0.000659096280282514,0.00569280419902826,-1.05461174921965e-05,-5.29521263599087e-06
-0.000660276452319411,0.00570676360766671,-1.16824068164891e-05,8.14688489660821e-06
-0.000658118764049933,0.00571994815587688,-1.05747661767239e-05,1.99772820731768e-05
-0.000655829945554134,0.00573087964838026,-9.01827958768127e-06,2.93942969971391e-05
-0.000654053727033956,0.00573796068060164,-7.64959132044697e-06,3.6800687887712e-05
-0.000650990048109892,0.0057432774152325,-4.67132549040633e-06,4.1676684333377e-05
-0.000643801727521522,0.00574624572671924,9.07738537741168e-07,4.29877180886464e-05
-0.00063751939758774,0.00574593578254794,6.97624416740421e-06,4.16972613405091e-05
-0.000633263625697114,0.00574375425241913,1.07139413698131e-05,4.03007403780146e-05
-0.000631487407176936,0.00574367080591147,1.16731774345331e-05,3.87012579847162e-05
-0.000631213225794627,0.00573898588055288,1.10304670500301e-05,3.2990030290736e-05
-0.000632298030394198,0.005726218564881,9.20474732459676e-06,2.05156275281466e-05
-0.000635278262810603,0.00571153197953296,6.02113700755028e-06,4.48973891259571e-06
-0.000637781658040384,0.00569795404064381,2.31311875796305e-06,-8.99373116255222e-06
-0.000639820137013205,0.00569019351543149,-6.45686097696658e-07,-1.75042274066455e-05
-0.000642144718298001,0.00568497214823795,-3.12495229047712e-06,-2.32982178227758e-05
-0.000644695797246444,0.00568068061355833,-6.64308950533832e-06,-2.86436713826721e-05
-0.000648486652880111,0.00567457709756953,-1.14516833902917e-05,-3.32993247759874e-05
-0.000652504006177426,0.00567293200927568,-1.56989351660823e-05,-3.69168661712757e-05
-0.000653374234043016,0.00566976104198462,-1.76308305019502e-05,-4.08792956237683e-05
-0.000653076210801376,0.00566296611207522,-1.75905037973453e-05,-4.61740319327913e-05
-0.000651407280648189,0.00565917525644155,-1.71454177860871e-05,-5.11339008771512e-05
-0.000651216545773539,0.00565830502857596,-1.70063791912571e-05,-5.27738520596027e-05
-0.000650036373736642,0.00566114220983638,-1.67435073279648e-05,-4.95859866331008e-05
-0.000649130383082055,0.00566849742344006,-1.62252011248148e-05,-4.22017735777427e-05
-0.000648260155216465,0.0056787136601635,-1.62521624043201e-05,-3.20730034263917e-05
-0.000649535694690686,0.0056912306363124,-1.74201239477076e-05,-2.03349541808551e-05
-0.00065047744813427,0.00570324693341535,-1.9114654641162e-05,-7.74402352895214e-06
-0.000650763550446245,0.00571556125375994,-2.03495407647401e-05,4.64045876174631e-06
-0.000652146378287457,0.00572605167186568,-2.11607441487349e-05,1.50471030021424e-05
-0.000652551689896088,0.00573320422966505,-2.20904922982411e-05,2.22197903134169e-05
-0.000651407280648189,0.00573847328057726,-2.22205902026999e-05,2.74592478519821e-05
-0.000648951569137071,0.00574417148495743,-1.9029547459732e-05,3.38757742230014e-05
-0.000641262569502745,0.00575238500549704,-1.10660929106892e-05,4.2207589834721e-05
-0.000628304518956215,0.00575927530284377,2.0035402450772e-07,4.89180350010806e-05
-0.000616717375321232,0.00576047931673999,1.24207347682851e-05,5.05392000578863e-05
-0.00060458186892163,0.00575728450758961,2.54809925150652e-05,4.83848685159614e-05
-0.00058789256738976,0.00575492416351582,4.07923816341484e-05,4.60631236522867e-05
-0.000571203265857891,0.00575305257755831,5.76829955899445e-05,4.37730804866656e-05
-0.000557112726993127,0.00574681793134319,7.26817776994033e-05,3.92629399798468e-05
-0.000546443494942397,0.00574096475487737,8.3130166278324e-05,3.38615021833031e-05
-0.000539815458048311,0.00573973689912181,8.95167689659371e-05,3.21481776074173e-05
-0.000537049802365887,0.00574053560140941,9.27316504363247e-05,3.4209806288137e-05
-0.000539886983626305,0.00573853288522559,9.05702463789455e-05,3.33909632713745e-05
-0.000551354917964632,0.00572985444842901,7.93304099303966e-05,2.46628195780918e-05
-0.000571358237943544,0.00571583543514224,5.87789187219492e-05,1.09356092559108e-05
-0.000597786939012226,0.00570055280331092,3.38616385564714e-05,-2.3716380697301e-06
-0.00062061551932189,0.00568789277600603,1.11773946430706e-05,-1.4682211592356e-05
-0.000637257137135097,0.00567560229752077,-5.3839197965673e-06,-2.72760214377862e-05
-0.000648570099387771,0.00566406283760445,-1.59019412863558e-05,-3.65908622668626e-05
-0.000655818024624468,0.0056627276934819,-2.29131000440038e-05,-3.72609494733172e-05
-0.000663173238228156,0.00566918883736067,-2.89457628236916e-05,-3.07732055603963e-05
-0.000668263475195377,0.00567387376271926,-3.43634397860723e-05,-2.46528161975161e-05
-0.00067187551688406,0.00567491088360017,-3.72261392602404e-05,-2.25674578188868e-05
-0.000671815912235732,0.00567541156264612,-3.61038103602434e-05,-2.10820085946911e-05
-0.000669229070498292,0.00567872558109317,-3.29970716217212e-05,-1.75015833502357e-05
-0.000668668786804008,0.00567977462290374,-3.20820451380909e-05,-1.50172366023703e-05
-0.000671970884321385,0.00567648444631603,-3.50843122317112e-05,-1.7109690978813e-05
-0.000677883665435533,0.00567139420934881,-3.92463334778555e-05,-2.16501711966758e-05
-0.000679636042096379,0.00566759143278548,-4.07172209609473e-05,-2.44138194373802e-05
-0.000677013437569942,0.00566642318167825,-3.87399681960348e-05,-2.48759122084661e-05
-0.000676083605056024,0.00566518340499302,-3.53279324571771e-05,-2.44129609334701e-05
-0.000672805349397978,0.0056673768560515,-3.19225366152638e-05,-2.16705866580594e-05
-0.000668799917030329,0.00567408833945324,-2.81897349371159e-05,-1.45937076527917e-05
-0.00066612962878523,0.0056817296553689,-2.37844790995994e-05,-5.48890649959844e-06
-0.000662016908050591,0.00568650994816482,-1.94043977769059e-05,1.00264677974977e-06
-0.000658631364025555,0.00569096837585976,-1.56315443573768e-05,4.82985600371198e-06
-0.000656211415303434,0.0056953910407657,-1.2186436162709e-05,1.06946430898611e-05
-0.000653469601480341,0.005703473431079,-9.06831615916341e-06,2.02031383169537e-05
-0.000651848355045817,0.00571060214701904,-7.15638345583568e-06,2.79379972284298e-05
-0.000652277508513779,0.00571019683541041,-6.48279634953859e-06,2.76308032738521e-05
-0.000651204624843873,0.00570086274748222,-4.78492472320231e-06,1.95213498767632e-05
-0.000645458736745044,0.00568915639455058,5.69524025538568e-07,9.1416288345761e-06
-0.000638020076633696,0.00568063292983967,9.18185997221655e-06,7.39164462019176e-07
-0.00063060525838168,0.00567431483711689,1.74266683509861e-05,-5.34394757416461e-06
-0.000626313723702057,0.00566856894901806,2.19466859084774e-05,-9.79408324877638e-06
-0.000625169314454157,0.00566548142823466,2.22564620546977e-05,-1.18756424988682e-05
-0.000630199946773049,0.00566738877698116,1.95853978094726e-05,-1.04228191445268e-05
-0.000635218658162275,0.00567178760002778,1.47160965841472e-05,-5.43082215106561e-06
-0.00064029697419983,0.00567797456252423,8.27669386715023e-06,2.13573474324989e-06
-0.000648248234286799,0.00568679605047679,2.08142099828347e-06,1.09576927918768e-05
-0.000653290787535357,0.00569527183146905,-1.87673955689999e-06,1.91120558267822e-05
-0.000653886834018638,0.00569947991964101,-3.85866252796648e-06,2.43411907227754e-05
-0.000657153168747018,0.00570051704052192,-6.14360169963112e-06,2.58014733904651e-05
-0.000661647359230957,0.00569990907310898,-9.83973832572558e-06,2.52081775146578e-05
-0.000664961377677999,0.00570033822657694,-1.32720515227376e-05,2.52085022969384e-05
-0.00066621307529289,0.00570081506376356,-1.42685057531059e-05,2.65671444193589e-05
-0.000664758721873684,0.00570158992419183,-1.2871914140875e-05,2.76606657415825e-05
-0.000663673917274113,0.00570158992419183,-1.08244163232271e-05,2.66562366389896e-05
-0.000662076512698919,0.00569756064996485,-9.29372881602375e-06,2.31993545360778e-05
-0.000660860577873026,0.00569192205023301,-8.17514206966805e-06,1.77268422483362e-05
-0.000659966508148104,0.00568512712032361,-6.90471003439278e-06,1.02559415789377e-05
-0.000658357182643246,0.00567523274870114,-4.81152754409138e-06,6.68228387527713e-07
-0.000654947796758878,0.00566481385617339,-1.18676134467065e-06,-1.05490038390771e-05
-0.000649476090042358,0.00565239224746181,3.87024527759615e-06,-2.27188508609754e-05
-0.000644731560035441,0.00564017329455455,9.03208077511567e-06,-3.55457366020967e-05
-0.000641644039252045,0.00562740597888267,1.31057248043742e-05,-4.84433080942156e-05
-0.000637781658040384,0.00561665330032428,1.63117609315443e-05,-6.00202778577242e-05
-0.000634551086101001,0.00560814175654302,1.92738497174065e-05,-6.92174711820448e-05
-0.000633633174516748,0.00560044083597903,2.15669455705107e-05,-7.58917761755337e-05
-0.000632393397831523,0.00560019049645606,2.26457398717057e-05,-7.86410810978183e-05
-0.000630998649060646,0.00560559067759458,2.33531455206854e-05,-7.33169845535972e-05
-0.000630652942100343,0.0056217077745025,2.45709498922471e-05,-5.68674395262082e-05
-0.000630557574663018,0.00564701590818262,2.4960680039043e-05,-3.2936646126769e-05
-0.000633013286174135,0.00567061934892054,2.25101494920486e-05,-1.04843817799419e-05
-0.000636899509245128,0.00568629537143084,1.8341263137918e-05,4.5935335018109e-06
-0.000639438667263905,0.00569521222682072,1.62574149442662e-05,1.40792142672074e-05
-0.00063847307196099,0.00570614371932409,1.77367034984716e-05,2.24659449790341e-05
-0.000636208095324522,0.00571495328634699,1.99554841815838e-05,3.05959938798804e-05
-0.000635540523263247,0.00572086606746114,2.00309553466566e-05,3.69569625468177e-05
-0.000637841262688712,0.00572837625315048,1.86634615933028e-05,4.24625084692804e-05
-0.000639188327740927,0.00573627982951878,1.76663488885304e-05,4.95247917311047e-05
-0.000640046634676852,0.00574470792679238,1.62789852486695e-05,5.71737998945583e-05
-0.000643551387998544,0.0057494166940103,1.27313638847613e-05,6.12022895276919e-05
-0.000649178066800717,0.00574904714519066,7.86568120365737e-06,5.93855205966145e-05
-0.000653338471254019,0.00574336086174016,3.95916829186332e-06,5.30600828888023e-05
-0.000655782261835471,0.00573505197376323,6.10240347077467e-07,4.33095266774013e-05
-0.000662040749909922,0.00572208200228703,-4.94508288256403e-06,2.97478952705704e-05
-0.000670421163464854,0.00570768151925096,-1.32430324650138e-05,1.45340088701401e-05
-0.00067870620958246,0.00569856200805676,-2.12940072571721e-05,3.48704278221086e-06
-0.000683653395393693,0.00569567714307768,-2.66706261183318e-05,8.8671960366769e-08
-0.000687110464996723,0.00569669042209926,-3.03382235467479e-05,8.1908057169307e-07
-0.0006919384415113,0.00569778714762849,-3.41849233166745e-05,-5.34504603407544e-07
-0.000695133250661686,0.00569305453855124,-3.78772325906972e-05,-5.69280700525477e-06
-0.000696563762221561,0.00568714175743709,-3.97926980140285e-05,-1.18634814486098e-05
-0.00069645647385457,0.00568413768316136,-3.95274752108941e-05,-1.71402667806662e-05
-0.000695335906466002,0.00567965541360708,-3.77342785952932e-05,-2.21391388131841e-05
-0.000691223185731362,0.00567550693008345,-3.44779426187992e-05,-2.67289247301645e-05
-0.000686097185975145,0.00567505393475616,-2.94975427746875e-05,-2.90204500202836e-05
-0.000680160563001666,0.00567623410679305,-2.36972102721112e-05,-2.86950852646111e-05
-0.000676178972493349,0.00567653213003469,-1.89185665139976e-05,-2.85127655200265e-05
-0.000671935121532388,0.00567624602772272,-1.61086768329546e-05,-3.07643131949458e-05
-0.000670397321605523,0.00567393336736759,-1.44020971835347e-05,-3.3825191936627e-05
-0.00066803697753173,0.00567404065573458,-1.19304526047853e-05,-3.3890674171227e-05
-0.000662910977775513,0.00568012032986404,-7.26329339686466e-06,-2.94545002454517e-05
-0.000656056443217781,0.00568739209696007,-6.17284148955596e-07,-2.28614487011844e-05
-0.000648808517981083,0.00569366250596419,5.9781318195149e-06,-1.74918545879173e-05
-0.000644111671692829,0.00569751296624618,1.0471761377902e-05,-1.3941607876377e-05
-0.000641965904353017,0.00570348535200866,1.31991081137312e-05,-9.23187211839508e-06
-0.000636744537159475,0.00571378503523976,1.65318432833975e-05,-2.66001355966974e-07
-0.000632119216449214,0.00572485957889912,2.15215029873213e-05,1.1688292352117e-05
-0.000627410449231294,0.00573626790858912,2.61813359777504e-05,2.10315718657664e-05
-0.000624322928447898,0.00573941503402084,2.82428000406508e-05,2.35997914604409e-05
-0.000623965300557929,0.00573726926668103,2.83560878024867e-05,2.16824953000593e-05
-0.000622892416888023,0.00573844943871793,2.8815005942065e-05,2.15166610442081e-05
-0.000621581114624805,0.00574339662452916,2.99396302274549e-05,2.59540857554763e-05
-0.000621092356508515,0.00574916635448732,2.98171876348654e-05,3.15215791406032e-05
-0.000622677840154042,0.00575135980554579,2.74319963741776e-05,3.30699225756245e-05
-0.000625789202796769,0.00574843917777772,2.40110911161451e-05,2.94942152391871e-05
-0.000628364123604543,0.00574333701988083,2.09710330667747e-05,2.40980966852749e-05
-0.000630474128155358,0.00574005876422279,1.82687667107422e-05,2.08364001807088e-05
-0.000632596053635839,0.00574139390834534,1.52103891058965e-05,2.11208453073587e-05
-0.000636363067410175,0.00574344430824782,1.12727177497798e-05,2.30532236772248e-05
-0.000641465225307061,0.00574281249897554,5.61800738463753e-06,2.27960157308929e-05
-0.000648641624965765,0.00573852096429592,-2.52067599020793e-06,1.76879344083749e-05
-0.000657784978019296,0.00573043857398263,-1.21391390849763e-05,8.92745788524762e-06
-0.000665867368332587,0.00572066341165682,-2.06062467426919e-05,4.26066842636673e-07
-0.000671076814596463,0.00571601424908723,-2.63895097623425e-05,-5.49997621461151e-06
-0.000673556367966912,0.00571109090513533,-3.02619923721599e-05,-1.02061958199003e-05
-0.000676739256187633,0.00570491586356854,-3.29851148767423e-05,-1.60331977672213e-05
-0.000676405470156996,0.00569826398481512,-3.35712442836929e-05,-2.3129784748547e-05
-0.000672876874975972,0.00569098029678942,-3.12895042207061e-05,-2.99554029379715e-05
-0.000669300596076286,0.00568555627379157,-2.77363698343482e-05,-3.53277959590081e-05
-0.000666236917152221,0.00568259988323449,-2.48600263979551e-05,-3.84338649337988e-05
-0.000662136117347247,0.00568215880883687,-2.20762636697232e-05,-3.82081845109875e-05
-0.000656974354802034,0.00568566356215856,-1.76334802459907e-05,-3.47258272132124e-05
-0.000651788750397488,0.00568943057593289,-1.2060989821583e-05,-3.03000268323989e-05
