BCL,BCC,BCL_Filtered,BCC_Filtered
-,-,-,-
-0.00164015302897412,0.00617704428297545,2.70643968029681e-21,1.57956523365361e-20
-0.00164585123335428,0.00618407763147817,-4.9077251520577e-06,8.88813566544634e-06
-0.00164817581463908,0.00619307793337571,-6.6802370329614e-06,1.84348336056853e-05
-0.00164633999147057,0.00620319880266182,-4.5077774342849e-06,2.91229491610928e-05
-0.00164241800561059,0.00621261633709766,-1.36297042586558e-07,3.96167764892634e-05
-0.00163961658713916,0.00621720589501893,4.07166845602103e-06,4.69739300016447e-05
-0.0016369701407534,0.00622022189022433,7.23172744593806e-06,5.04561551062144e-05
-0.00163338194092404,0.00622414387608432,1.01731838282627e-05,5.34598834092069e-05
-0.00163123617358423,0.00622729100151604,1.39322532391355e-05,5.9110408740063e-05
-0.00162792215513719,0.00623128451295403,1.84363383702464e-05,6.53456084981491e-05
-0.00162322530884894,0.00623408593142545,2.26594516430264e-05,6.75184432594611e-05
-0.00162079343919715,0.00623127259202436,2.54927772166148e-05,6.47823591084896e-05
-0.00162149677404742,0.00622488297372359,2.61070574402665e-05,5.98631877627898e-05
-0.00162444124367483,0.00621573962067006,2.40477122705462e-05,5.28891771483509e-05
-0.00162802944350418,0.00620369948170778,1.98228467394011e-05,4.06487801810071e-05
-0.00163401375019632,0.00618766583130752,1.51684860113737e-05,2.33853774491848e-05
-0.00163742313608069,0.00617055929723735,1.16185005082309e-05,6.83862489256083e-06
-0.00164219150794694,0.00615311897713655,8.55600752440451e-06,-5.98499212070775e-06
-0.00164729366584382,0.00613969601033306,3.83127775685042e-06,-2.0170252588682e-05
-0.0016513587028598,0.00613030231775655,-2.93891838950336e-06,-4.04293552804352e-05
-0.00166277895347947,0.00609139240332796,-8.70625382588936e-06,-6.05696803710997e-05
-0.00166143188842725,0.00609514749617264,-9.92702021177421e-06,-6.86526936425535e-05
-0.00165781984673857,0.00610228813304234,-6.73656190073989e-06,-6.22523183163396e-05
-0.00165643701889736,0.00610820091415649,-2.84476440107303e-06,-5.17037391305669e-05
-0.00165476808874417,0.00611393488132565,-1.32759812190219e-06,-4.67266121518748e-05
-0.00165508995384514,0.00611681974630473,-1.87663416518926e-06,-4.61180048974024e-05
-0.00165623436309304,0.00612032449962643,-2.47706027665371e-06,-4.36943042201564e-05
-0.00165656814912368,0.00612381733201845,-2.36025549461941e-06,-3.86382882052803e-05
-0.00165731916769261,0.00612821615506507,-2.38989897207922e-06,-3.46132492389859e-05
-0.0016581893955582,0.00613344944318828,-3.46135173523843e-06,-3.19474910871155e-05
-0.00166032324196835,0.00613931454058376,-5.57457911491486e-06,-2.67200901660981e-05
-0.00166344652554074,0.00614811218667699,-8.05309040845875e-06,-1.71759546260477e-05
-0.00166603336727818,0.00616062916282589,-9.89633705916587e-06,-6.56936596300344e-06
-0.00166555653009156,0.00616928375776313,-1.03614894914928e-05,9.20215780168253e-07
-0.00166587839519253,0.00617347992500543,-1.00144995157476e-05,3.96940610107673e-06
-0.00166713009280742,0.00617371834359874,-1.07974845314639e-05,3.27490453958289e-06
-0.00167020569266115,0.006170785794901,-1.4031137919345e-05,-3.6999582887284e-07
-0.00167444954362211,0.00616703070205633,-1.83949256435624e-05,-6.10316008695283e-06
-0.00167708406907821,0.00616190470230011,-2.07909463176683e-05,-1.27113486450804e-05
-0.00167586813425232,0.00615646875837259,-1.9412406578078e-05,-1.90984761420498e-05
-0.00167173157165835,0.00615234411670829,-1.53573194432243e-05,-2.41464673072737e-05
-0.00166717777652608,0.00615266598180926,-1.11221128646672e-05,-2.61362924128185e-05
-0.00166456709292931,0.00615667141417691,-8.14585832257823e-06,-2.35786907599342e-05
-0.00166214714420719,0.00616442001845956,-6.00998454588969e-06,-1.6916510638472e-05
-0.00165926227922811,0.0061738017901064,-3.37449459562081e-06,-8.63150878791114e-06
-0.00165532837243845,0.0061833385338389,7.3242382431334e-07,-1.56600882559706e-06
-0.00164951095876163,0.00618903673821907,6.0865343444582e-06,2.68094395012575e-06
-0.00164433727528675,0.00619150437065985,1.11642694824961e-05,4.61445212329769e-06
-0.00164114246613636,0.00619616545415911,1.40387486556488e-05,6.79915326073214e-06
-0.00164134512194068,0.00620201863062493,1.39032489128521e-05,1.16417880370469e-05
-0.00164270410792256,0.00621030367674253,1.18245369560044e-05,1.78915455130543e-05
-0.00164453993109107,0.00621396340214988,9.73364182398519e-06,2.0634293382099e-05
-0.00164556513104231,0.00621113814181913,8.61148714242985e-06,1.66526385668313e-05
-0.00164599428451027,0.00620590485369592,7.95497630549812e-06,8.91918862428127e-06
-0.0016456366566203,0.00620143450507131,7.15007519846748e-06,3.82845607940116e-06
-0.0016460896519476,0.00620324648638049,6.83912839080682e-06,4.72591298053236e-06
-0.00164468298224705,0.00621075667206983,8.14004066987571e-06,1.01281549546531e-05
-0.00164114246613636,0.00621894635075011,1.05289547896217e-05,1.72108689054996e-05
-0.00163965234992816,0.00622617043412747,1.15840770423453e-05,2.40900331871373e-05
-0.00164155969867466,0.00623303688961487,9.64935725137418e-06,2.90059587681137e-05
-0.00164445648458341,0.00623568333600064,6.07901099153328e-06,3.06290027106614e-05
-0.00164582739149495,0.00623537339182933,3.65862716578109e-06,3.00329631593167e-05
-0.00164663801471222,0.00623632706620258,3.05205229348512e-06,2.9747269307872e-05
-0.00164604196822893,0.00623811520565243,2.1793200913572e-06,2.99142022503813e-05
-0.00164940367039464,0.00623552836391499,-7.0239124413609e-07,2.7836138302372e-05
-0.00165196667027275,0.00623123682923536,-4.71789129562968e-06,2.24585216228484e-05
-0.00165457735386952,0.00622707642478206,-7.79343584361753e-06,1.68682417570081e-05
-0.00165538797708678,0.00622460879234128,-9.10047073697161e-06,1.46942094773441e-05
-0.00165506611198581,0.00622633732714279,-9.150920892774e-06,1.5954428704703e-05
-0.00165348062834028,0.00622924603398121,-8.49307634933728e-06,1.82017663601285e-05
-0.0016513944656488,0.00623183287571864,-7.48405056888322e-06,2.01482336510844e-05
-0.00165052423778321,0.00623379982911347,-6.66782087614859e-06,2.22556775040196e-05
-0.00164994011222959,0.00623624361969492,-6.24185580251165e-06,2.49055197911248e-05
-0.00164755592629647,0.0062399629497506,-5.6479624430672e-06,2.77885396563203e-05
-0.00164593467986194,0.00624272860543302,-4.65263587342411e-06,3.03550171459756e-05
-0.00164612541473659,0.00624295510309667,-4.16813465482827e-06,3.14886340775974e-05
-0.00164551744732365,0.00624115504271716,-4.89420137357426e-06,2.95696876970901e-05
-0.00164511213571502,0.00623662508944422,-5.87739571483505e-06,2.41372124990977e-05
-0.00164501676827769,0.00622768439219501,-5.7856223546045e-06,1.66634408327485e-05
-0.00164426574970876,0.00621997155070135,-4.94748826637771e-06,8.6664492589829e-06
-0.00164287100093788,0.00621116198367846,-4.51094177690104e-06,2.944595642204e-07
-0.0016404033684971,0.00620261467710821,-4.14261317734719e-06,-8.00751711521653e-06
-0.00164030800105977,0.00619635618903376,-2.5389339036123e-06,-1.40965932274637e-05
-0.00163698206168306,0.00619252957061109,-2.88098780510203e-08,-1.65277717850798e-05
-0.00163395414554799,0.0061921123380728,1.45104727351644e-06,-1.73619887616791e-05
-0.00163395414554799,0.00618847645452478,1.17155150199461e-06,-2.03508789956239e-05
-0.00163514623851456,0.00618100203162444,3.78722904094014e-07,-2.66889331006286e-05
-0.00163483629434325,0.00617314613897479,-2.92738540964335e-08,-3.42855448133133e-05
-0.00163410911763365,0.0061662439206984,-3.78337882721788e-07,-4.06584436520701e-05
-0.001633918382759,0.00616127289302783,-2.61195715215617e-07,-4.47456736331947e-05
-0.00163198719215317,0.00615848339548608,1.7470352979079e-06,-4.65395534189267e-05
-0.00162806520629318,0.00615813768852578,5.23548811785644e-06,-4.70498226995651e-05
-0.00162526378782176,0.0061551812979687,7.27583252616218e-06,-4.81975598272703e-05
-0.00162609825289835,0.00615230835391929,6.32694194997987e-06,-5.05744751037995e-05
-0.00162776718305154,0.00615135467954604,4.59106157987332e-06,-5.16373418284914e-05
-0.00162850628069081,0.00615243948414561,4.30226858487235e-06,-4.84086932353401e-05
-0.00162752876445822,0.00615886486523538,3.79034486725346e-06,-4.17047621643575e-05
-0.00163134346195122,0.00616498030215384,2.50194608403835e-07,-3.51645138109121e-05
-0.00163738737329169,0.0061684612136162,-4.96159555493916e-06,-3.02470409925271e-05
-0.00163905630344488,0.00617300308781881,-7.32124577737474e-06,-2.51642671249417e-05
-0.00163615951753613,0.00617814100850469,-5.13655849626927e-06,-1.89773064915746e-05
-0.00163322696883839,0.00618294514315993,-1.24217766905117e-06,-1.3156213197644e-05
-0.00163017521084399,0.00618824995686114,1.67388218649749e-06,-7.82277300061118e-06
-0.00162762413189555,0.00619424618448294,4.25124446502886e-06,-1.21899995416105e-07
-0.00162379751347289,0.00620409287238674,7.77302731943413e-06,1.10527591317429e-05
-0.0016209484112828,0.00621511973232744,1.1043019537533e-05,2.15094600492122e-05
-0.00162051925781484,0.00621845759263382,1.19987419037222e-05,2.63227110748977e-05
-0.00162146101125842,0.00621682442526963,1.09155926719902e-05,2.64296849291583e-05
-0.00162230739726468,0.0062175277601199,1.00792510847651e-05,2.73419801641378e-05
-0.00162173519264073,0.00622205771339284,1.09129235287662e-05,3.19017764606411e-05
-0.0016209841740718,0.00622555054578486,1.2679885322122e-05,3.73987936098745e-05
-0.00161989936947223,0.00622696913641507,1.3511660089826e-05,3.99396476573956e-05
-0.00162123451359478,0.00622627772249447,1.18731387685563e-05,3.88550240850169e-05
-0.00162689695518595,0.00622187889944785,7.66604917143641e-06,3.59322274170105e-05
-0.00163191566657517,0.00621746815547157,2.67760433699956e-06,3.2431188636432e-05
-0.00163522968502222,0.00621210373712204,-6.495088997835e-07,2.82831789972504e-05
-0.00163657675007443,0.00620733536525579,-1.48871809648657e-06,2.33011044386586e-05
-0.0016369343779644,0.00620080269579903,-1.04493682822548e-06,1.81033943274794e-05
-0.00163645754077778,0.00619535483094184,-4.41981366342906e-07,1.39351420456681e-05
-0.00163568268034951,0.00619313753802404,5.84628034808904e-07,1.17068522774446e-05
-0.00163491974085091,0.00619126595206654,2.27578589068212e-06,1.10003147899546e-05
-0.00163333425720538,0.00619003809631098,3.66193273301389e-06,1.0337986310663e-05
-0.001633846857181,0.00618761814758886,4.08939659894114e-06,8.83566583092296e-06
-0.00163378725253268,0.00618522204072607,4.69206544242525e-06,7.03339202757527e-06
-0.00163156995961487,0.00618314779896425,6.64928063959631e-06,5.58859857066389e-06
-0.00163043747129664,0.00618091858511678,8.80282839199907e-06,4.14601115321661e-06
-0.00163084278290527,0.00617904699915928,8.86113886470603e-06,2.58112475788743e-06
-0.00163329849441639,0.00617773569689606,6.51125961539486e-06,2.32729106929154e-06
-0.00163708935005005,0.00617940462704924,3.38303794455502e-06,4.66596501213508e-06
-0.00164039144756743,0.00618351734778388,5.96490862719558e-08,8.10052353406526e-06
-0.00164626846589258,0.00618280209200395,-4.70675225937429e-06,9.35560696785192e-06
-0.00165280113534934,0.00618029869677417,-1.12494262107409e-05,7.20939819308613e-06
-0.00165888080947881,0.00617791451084104,-1.7391444695286e-05,3.7645621345311e-06
-0.00166330347438475,0.00617388523661406,-2.07291000787247e-05,1.55471305496148e-06
-0.00166376839064171,0.00617293156224081,-2.12246179401554e-05,8.22031759889204e-07
-0.00166329155345509,0.00617255009249151,-2.04070816535953e-05,2.40869359067012e-07
-0.00166208753955886,0.00617144144603261,-1.90623377773409e-05,-8.57415870977172e-07
-0.00166056166056166,0.00616959370193444,-1.70398319641823e-05,-1.8012531720215e-06
-0.00165828476299553,0.00616965330658277,-1.46676265235043e-05,-1.56536523468743e-06
-0.00165683040957632,0.00617181099485224,-1.28979940384231e-05,-1.13121334104913e-07
-0.00165622244216337,0.00617260969713984,-1.21027312917077e-05,7.91482615553882e-07
-0.00165560255382076,0.00616906918102915,-1.1754510841873e-05,-1.62831869023728e-06
-0.00165596018171073,0.00616340673943798,-1.12992685811386e-05,-8.46030557313411e-06
-0.00165512571663414,0.00615507400960171,-1.04372150916083e-05,-1.71093252072916e-05
-0.00165247927024837,0.00614870823316027,-8.5099035271383e-06,-2.31670351184403e-05
-0.00164960632619895,0.00614713467044441,-4.69606538831401e-06,-2.46462995836893e-05
-0.00164405117297478,0.00614948309358854,5.3820729862063e-07,-2.35137773549467e-05
-0.00164005766153679,0.00615048445168045,4.74759500931689e-06,-2.29648007321774e-05
-0.00163924703831953,0.00614889896803492,5.15856063293684e-06,-2.43853080155125e-05
-0.0016429663683752,0.00614630020536782,1.3594832560088e-06,-2.72817457452609e-05
-0.00164871225647403,0.00614483393101894,-3.81771101098393e-06,-3.07367588991906e-05
-0.00165106067961816,0.00614167488465755,-6.43948521058032e-06,-3.39045961722923e-05
-0.00164833078672473,0.00613952911731774,-4.77512175062246e-06,-3.58623440296726e-05
-0.00164474258689538,0.0061415556753609,-4.78832358460127e-07,-3.59907165889631e-05
-0.00164120207078469,0.00614389217757536,3.61409962039985e-06,-3.43273289307256e-05
-0.00163649330356677,0.00614767111227936,6.55275848973135e-06,-3.11342085892876e-05
-0.00163395414554799,0.00615313089806622,9.60162910951612e-06,-2.64081176732999e-05
-0.00162984142481336,0.00616140402325416,1.37634815627536e-05,-2.00358873998098e-05
-0.00162558565292273,0.00617041624608137,1.80533287328502e-05,-1.21118763725131e-05
-0.00162168750892207,0.0061795595991349,2.06223768839394e-05,-3.07150879750157e-06
-0.00162187824379672,0.00619132555671487,2.05769760303922e-05,6.15698685360286e-06
-0.00162547836455574,0.00620044506790907,1.79547783451138e-05,1.44350353365995e-05
-0.00162844667604248,0.00620843209078503,1.29593795172012e-05,2.14396661785552e-05
-0.00163527736874088,0.00621681250433996,6.55286184658209e-06,2.78946283342406e-05
-0.00164091596847272,0.00622406042957666,1.12478122197948e-06,3.37939489951442e-05
-0.00164231071724359,0.00622828043867829,-1.21683393052179e-06,3.69638196013187e-05
-0.00164202461493162,0.00622824467588929,-1.12686178406643e-06,3.49321549180058e-05
-0.0016422749544546,0.0062227968110321,-1.29336026010594e-06,2.81268199279473e-05
-0.00164346704742116,0.00621593035554471,-2.93694828943275e-06,1.97324372098177e-05
-0.00164432535435708,0.00621008910000855,-4.55196629948301e-06,1.2418178041953e-05
-0.00164482603340304,0.00620614327228923,-4.67757020051997e-06,6.69820325596918e-06
-0.00164442072179441,0.00620312727708383,-4.21402771976913e-06,2.19358359520564e-06
-0.00164310941953119,0.00620106495625168,-4.70446647890156e-06,-1.65254941769792e-06
-0.00164519558222268,0.00619788206803096,-5.66315036493968e-06,-6.0863178060454e-06
-0.0016449094799107,0.00619404352867863,-5.50122703260659e-06,-1.15432550879774e-05
-0.00164284715907855,0.00619266070083742,-4.55709136347171e-06,-1.50519969289821e-05
-0.00164328823347618,0.00619680918436105,-5.17791398892458e-06,-1.22435320650496e-05
-0.00164718637747683,0.00620607174671124,-8.43352923177139e-06,-3.53829634340252e-06
-0.00165077457730619,0.0062171462903706,-1.23166929420946e-05,4.53846999200942e-06
-0.00165123949356314,0.00622020996929466,-1.40355650359779e-05,6.53446297389168e-06
-0.0016510129958995,0.00621871985308646,-1.30795323633347e-05,4.16737425619142e-06
-0.00164926061923865,0.0062187079321568,-1.10200382451112e-05,2.61563147156636e-06
-0.0016460896519476,0.00622141398319089,-8.86457735453334e-06,3.09694464316285e-06
-0.00164319286603885,0.00622178353201053,-5.83771770212915e-06,2.83270280412963e-06
-0.00163851986160993,0.00622127093203491,-9.68544754106961e-07,9.62711130745025e-07
-0.00163258323863645,0.00622128285296457,5.06379264844982e-06,1.27847731434951e-07
-0.0016266346947333,0.00622545517834754,1.04618326459819e-05,1.92222675686717e-06
-0.00162305841583362,0.00622810162473331,1.43767799774372e-05,4.36832218231132e-06
-0.0016198040020349,0.00622944868978552,1.74626916041903e-05,4.88820072908691e-06
-0.00161777744399175,0.00622949637350418,2.00688185959465e-05,3.19431542967619e-06
-0.00161613235569789,0.00622738636895337,2.09350399835714e-05,5.49036840058623e-07
-0.00161874303929466,0.00622659958759544,1.88700723535329e-05,-1.38168741607598e-06
-0.00162279615538097,0.00622798241543665,1.52559337899732e-05,-3.71991244378606e-07
-0.00162409553671453,0.00623383559190247,1.31755368145461e-05,4.85210040646375e-06
-0.00162475118784614,0.00624237097754305,1.35131989289103e-05,1.17236764295436e-05
-0.00162471542505714,0.00624517239601447,1.33306719327404e-05,1.4910269567092e-05
-0.0016289235132291,0.0062425617124177,9.25760620310418e-06,1.18696980846412e-05
-0.00163654098728543,0.00623748339638015,1.69979622589772e-06,5.54429851899757e-06
-0.0016445280101614,0.00623194016408564,-5.48677457350781e-06,3.37980394999732e-07
-0.00164778242396011,0.00622991360604248,-9.05681918369759e-06,-2.52393196470312e-06
-0.00164769897745246,0.00622797049450698,-9.06053085564101e-06,-4.18359648646659e-06
-0.00164753208443714,0.00622739828988303,-7.85064721006677e-06,-4.97599139697248e-06
-0.00164742479607015,0.00622861422470893,-7.57193111971184e-06,-4.39953583095358e-06
-0.00164766321466346,0.00622977055488649,-8.60522268630717e-06,-2.87411071133337e-06
-0.00164982090293294,0.00623121298737603,-9.55017857377747e-06,-1.18507219948858e-06
-0.00164939174946497,0.00623354948959049,-8.60465353199473e-06,1.18149799877878e-06
-0.00164564857754997,0.00623815096844142,-5.49609079877504e-06,5.34492783099943e-06
-0.00164241800561059,0.00624345578214263,-1.87846300475984e-06,1.1213790897803e-05
-0.00164103517776937,0.0062490109353668,6.41895923666727e-07,1.77325330816548e-05
-0.00163903246158555,0.00625573433969821,2.24448835916682e-06,2.40487734347907e-05
-0.00163729200585437,0.00626095570689176,3.8008268790842e-06,2.89613226566467e-05
-0.00163755426630701,0.00626032389761948,4.83181695654956e-06,3.03579157201389e-05
-0.00163795957791564,0.00625779666053037,4.0946812043291e-06,2.72554666210519e-05
-0.00164022455455211,0.00625156201431525,1.93551958776734e-06,2.17221100457602e-05
-0.00164233455910293,0.00624635256805137,3.64121635996067e-07,1.6733687800433e-05
-0.00164229879631393,0.00624135769852148,5.42643673595883e-07,1.25940396272455e-05
-0.00164146433123734,0.00623508728951736,1.64252963597357e-06,7.50243869362766e-06
-0.00164042721035643,0.00622934140141853,2.51531079235853e-06,1.20256820067522e-06
-0.00164070139173874,0.00622295178311776,3.03795419583091e-06,-4.34475612859759e-06
-0.00164008150339612,0.00621776617871321,3.28338109312468e-06,-8.01966373177451e-06
-0.00164097557312105,0.00621463097421115,2.80753872704195e-06,-1.09722020202182e-05
-0.00164232263817326,0.0062110785371708,1.59265429019794e-06,-1.44898339757565e-05
-0.00164330015440584,0.00620597637927391,5.23133002309752e-07,-1.84253720784206e-05
-0.00164421806599009,0.00620086230044736,3.73018713903418e-08,-2.23784403583725e-05
-0.00164471874503605,0.00619668997506439,-7.1679740940024e-07,-2.65915463923613e-05
-0.0016468525914462,0.00619181431483116,-2.54661603072972e-06,-3.08069167023855e-05
-0.00164896259599701,0.00618803538012715,-4.93440367340186e-06,-3.36955841630692e-05
-0.00165140638657846,0.00618697441738691,-6.86353405903072e-06,-3.41367628645344e-05
-0.00165202627492108,0.00618832148243913,-8.00066224456863e-06,-3.18033414800565e-05
-0.00165238390281104,0.00619424618448294,-8.27675870210709e-06,-2.63033925591567e-05
-0.0016517401726091,0.0062016133190163,-7.34338760278281e-06,-1.77468561075578e-05
-0.00164939174946497,0.00620950497445494,-5.48586152433584e-06,-8.72907991372057e-06
-0.00164802084255343,0.00621515549511644,-4.16238560168201e-06,-3.19151827198137e-06
-0.00164842615416206,0.00621675289969163,-4.44228415671313e-06,-1.62279684799432e-06
-0.00164923677737932,0.00621737278803425,-5.56997670172733e-06,5.42000951461028e-07
-0.00164953480062096,0.00622407235050633,-6.17261766262586e-06,7.45274126998681e-06
-0.00164961824712862,0.00623358525237949,-6.24753109408047e-06,1.70899653779759e-05
-0.00165009508431525,0.00623970068929795,-6.82980986625679e-06,2.32898881224779e-05
-0.00165083418195451,0.0062380913637931,-8.27950951499547e-06,2.26230683541634e-05
-0.00165286073999767,0.00623170174549232,-1.00331737906485e-05,1.69035993203119e-05
-0.00165370712600393,0.0062250856295279,-1.14967950112289e-05,9.57734827802221e-06
-0.00165414820040156,0.00621773041592422,-1.20472851961107e-05,2.6129719486559e-06
-0.00165252695396703,0.00621137656041244,-1.07548740134997e-05,-2.63021512949744e-06
-0.00164849767974005,0.00620999373257123,-7.39259995809692e-06,-4.38086840436512e-06
-0.00164453993109107,0.00621233023478569,-3.2355468341001e-06,-2.18020780131519e-06
-0.00164048681500475,0.00621595419740404,3.88862687357212e-07,1.65158440774953e-06
-0.00163604030823948,0.00621757544383856,3.74040831356011e-06,3.81618551228059e-06
-0.0016327024479331,0.00621650256016866,7.45599120280434e-06,2.86184565178189e-06
-0.00162929306204874,0.00621436871375851,1.04854568880174e-05,-4.75542861291098e-07
-0.00162783870862953,0.00620863474658935,1.12430872323727e-05,-4.90268044264367e-06
-0.00162763605282522,0.00620440281655805,1.04651553309016e-05,-9.56880127644319e-06
-0.00162829170395682,0.00620034970047174,1.06199893988596e-05,-1.40141585885764e-05
-0.00162582407151604,0.00619595087742513,1.22405409195623e-05,-1.81207570513549e-05
-0.0016235829367389,0.0061928395147824,1.31057242635326e-05,-2.18878334569332e-05
-0.00162566909943039,0.00618966854749134,1.17449157611631e-05,-2.45985566820062e-05
-0.0016270519272716,0.00618997849166265,9.56957934586924e-06,-2.46799579644836e-05
-0.00162779102491087,0.00619382895194465,8.35825277433325e-06,-2.13341277896108e-05
-0.00162799368071518,0.0061993245005205,7.57973012424268e-06,-1.6003982194055e-05
-0.00162925729925974,0.00620398558401975,5.85035016947279e-06,-1.10292023125637e-05
-0.00163158188054454,0.00620912350470564,3.52537490351339e-06,-6.78273884981784e-06
-0.00163289318280775,0.00621445216026617,1.86377937314061e-06,-1.48258710584434e-06
-0.00163267860607377,0.00622201002967417,5.41369424604557e-07,5.53970017438562e-06
-0.00163583765243516,0.00622795857357732,-1.92739271865973e-06,1.17211596076285e-05
-0.00163935432668652,0.00623086728041573,-5.54255190330475e-06,1.38770415546734e-05
-0.00164049873593442,0.0062296275037305,-8.39313891497856e-06,1.23171848685285e-05
-0.00164169082890098,0.00622805394101464,-9.03780713920344e-06,1.05975224138694e-05
-0.00164028415920044,0.00622899569445823,-7.93988530373969e-06,1.10937047962034e-05
-0.00163782844768932,0.0062308434385564,-6.36091102367402e-06,1.27542178960156e-05
-0.00163694629889407,0.00623269118265457,-5.13044510042551e-06,1.41675271199195e-05
-0.00163568268034951,0.00623602904296094,-4.8411402299601e-06,1.69407039835079e-05
-0.00163666019658209,0.00624280013101102,-5.94155161248948e-06,2.37573162158363e-05
-0.00163885364764056,0.00625302828866412,-7.83864490540234e-06,3.36357179610383e-05
-0.00163903246158555,0.00626134909757072,-8.81013538984834e-06,4.14835705987623e-05
-0.00163741121515102,0.00626355446955886,-7.76329359209559e-06,4.29921135018283e-05
-0.00163593301987249,0.00625832118143565,-5.60634854453092e-06,3.84159763421103e-05
-0.00163363228044702,0.00625178851197889,-3.99067090222505e-06,3.08332608881252e-05
-0.00163234482004314,0.00624338425656463,-2.98610487354228e-06,2.2239076446992e-05
-0.00163066396896028,0.00623379982911347,-1.0301371755436e-06,1.27036756614862e-05
-0.00162600288546103,0.00622422732259198,2.70439359581801e-06,2.42822224905437e-06
-0.0016229272856073,0.00621459521142216,6.93903065248284e-06,-7.11065570100617e-06
-0.00161881456487266,0.00620732344432613,9.96893381004476e-06,-1.4278260485473e-05
-0.00161681184868883,0.00620431937005039,1.20043549241212e-05,-1.87056239543853e-05
-0.00161452303019303,0.00620064772371338,1.46710938840746e-05,-2.14690731811507e-05
-0.00161094675129335,0.0061977986215233,1.81471168182977e-05,-2.43582719350702e-05
-0.00160913476998417,0.00619448460307625,1.99350369880565e-05,-2.88543428175186e-05
-0.0016114831931283,0.00618780888246351,1.72674579733776e-05,-3.50570739513176e-05
-0.00161887416952098,0.00618172920833404,1.03403479482853e-05,-4.1179000090246e-05
-0.00162715921563859,0.0061787966596363,2.5504502452147e-06,-4.4340862889682e-05
-0.00163112888521724,0.00618089474325745,-2.32220128526321e-06,-4.24042442204669e-05
-0.00163253555491779,0.00618772543595585,-2.89643464638156e-06,-3.55639346895027e-05
-0.0016304493922263,0.006197381388985,-7.43836969824213e-07,-2.64244015791299e-05
-0.00162885198765111,0.00620465315608103,1.06661135222175e-06,-1.82324518492517e-05
-0.00162957916436071,0.00621074475114016,2.77090582196802e-07,-1.25017954184147e-05
-0.00163319120604939,0.0062160376439117,-2.74507056388292e-06,-8.27943543339039e-06
-0.00163558731291218,0.00621938742514774,-5.30855730943685e-06,-3.90596799155553e-06
-0.00163599262452082,0.00622340477844505,-5.0976331639543e-06,8.55235757069831e-07
-0.00163403759205565,0.00622875727586491,-2.6937204936516e-06,4.94291644448933e-06
-0.00163176069448952,0.00623216666174928,-9.35002678092596e-07,7.84287050914152e-06
-0.00163367996416569,0.0062327150245139,-1.81144044549806e-06,1.04371722597376e-05
-0.00163687477331607,0.00623698271733419,-4.64511604410596e-06,1.41413714750716e-05
-0.00163949737784251,0.00624399222397758,-7.38872622070014e-06,2.00158756597506e-05
-0.00164176235447898,0.00625170506547123,-8.92193748533848e-06,2.84194787983798e-05
-0.00164240608468092,0.00626028813483048,-9.70252100264472e-06,3.8215504612934e-05
-0.00164467106131739,0.00626918114836104,-1.07722469980949e-05,4.62806862289962e-05
-0.00164656648913422,0.00627255477145641,-1.26330702561215e-05,4.94498853133e-05
-0.0016483784704434,0.00627094544595155,-1.47757909423103e-05,4.77240455229216e-05
-0.00165086994474351,0.00626553334388336,-1.58939847420921e-05,4.43157916106836e-05
-0.00165013084710424,0.00626404322767515,-1.47066274377493e-05,4.16457635034289e-05
-0.00164581547056529,0.00626238621845163,-1.08388853005472e-05,3.84678566482681e-05
-0.00164082060103539,0.00625281371193014,-4.93072111559247e-06,3.21200407217236e-05
-0.0016346097966796,0.00624431408907855,1.9564659816938e-06,2.26234986111902e-05
-0.00162779102491087,0.00623638667085091,8.79618206210664e-06,1.29626501678638e-05
-0.00162229547633502,0.00622648037829878,1.47572237322421e-05,5.62363111261684e-06
-0.00161836156954536,0.00622181929479952,1.94830564370822e-05,2.65559439747244e-07
-0.00161436805810738,0.00621713436944093,2.30769477153499e-05,-5.15415662666156e-06
-0.0016134263046638,0.00620938576515828,2.52159114025159e-05,-1.22030066511227e-05
-0.00161459455577103,0.00619958676097314,2.45896364339008e-05,-2.12210834882886e-05
-0.00161820659745971,0.0061905149334976,2.03388825039099e-05,-3.14990744201404e-05
-0.00162508497387677,0.00618099011069477,1.41604294165798e-05,-4.11768297866172e-05
-0.00163134346195122,0.00617275274829583,9.62880358169386e-06,-4.74868205389291e-05
-0.00163115272707657,0.00617334879477911,8.58585342083258e-06,-4.8515481330311e-05
-0.00163102159685025,0.0061768535481008,9.07844557514757e-06,-4.54316506635434e-05
-0.00163342962464271,0.00617908276194827,7.85054551435427e-06,-4.220441097367e-05
-0.00163770923839267,0.00617902315729994,4.24557704322596e-06,-4.18883019758891e-05
-0.00164028415920044,0.00617927349682292,4.60913279969758e-07,-4.32579713503947e-05
-0.00164335975905417,0.00618008412004019,-1.78040419357482e-06,-4.23581335336046e-05
-0.00164630422868158,0.00618388689660352,-3.38857254639515e-06,-3.74318826447704e-05
-0.00164861688903671,0.00619174278925316,-6.24183114291472e-06,-3.04737036958588e-05
-0.00165205011678041,0.00619994438886311,-1.03749233041156e-05,-2.32686896943992e-05
-0.00165727148397395,0.00620827711869938,-1.38809699398313e-05,-1.44823447284812e-05
-0.00165874967925249,0.00621973313210804,-1.5417543301209e-05,-2.87990766583075e-06
-0.0016582251583472,0.0062324050803426,-1.57589773277324e-05,8.78732984273081e-06
-0.00165990600943005,0.00624061860088221,-1.63201721519507e-05,1.66585936727878e-05
-0.00166046629312434,0.00624557770762311,-1.68465609622696e-05,2.14842212265142e-05
-0.00165880928390081,0.00625196732592388,-1.57136292880638e-05,2.74843922599539e-05
-0.00165662775377201,0.00626062192086112,-1.25570644293408e-05,3.55538853606431e-05
-0.00165280113534934,0.00626710690659922,-9.35381110947338e-06,4.1749542154009e-05
-0.00165166864703111,0.00626944340881368,-8.13541663793928e-06,4.32740917795127e-05
-0.00165262232140436,0.00626853741815909,-8.57623908033622e-06,4.16521877347569e-05
-0.00165264616326369,0.00626493729740007,-8.95241831357489e-06,3.84655981699616e-05
-0.00165209780049907,0.00626028813483048,-8.70850967403023e-06,3.26942440933486e-05
-0.00165240774467038,0.0062547687443953,-8.47827349221749e-06,2.53738967237626e-05
-0.00165145407029713,0.00625094212597264,-7.91046764350458e-06,2.25124793523306e-05
-0.00164887914948935,0.00625742711171073,-5.4904593520202e-06,2.84064400300686e-05
-0.00164453993109107,0.00626920499022037,-1.03161467455409e-06,3.83101967787275e-05
-0.00163968811271716,0.00627447404113257,3.41403059871046e-06,4.25631794092142e-05
-0.00163720855934671,0.00626769103215283,6.11290163122376e-06,3.6994427234257e-05
-0.00163509855479589,0.00625771321402271,7.71144540783182e-06,2.51808517593649e-05
-0.00163325081069772,0.00624566115413077,9.55433534395615e-06,1.15676159396512e-05
-0.00163149843403688,0.00623143948503968,1.11751033598775e-05,-2.77130632745212e-06
-0.00163123617358423,0.00621678866248063,1.10450200809985e-05,-1.74331409566507e-05
-0.0016331196804714,0.00620527304442364,9.08623405201868e-06,-3.0531009852079e-05
-0.00163525352688155,0.00619648731926008,6.76695279992244e-06,-4.08175579466807e-05
-0.00163657675007443,0.00618813074756448,4.9713437988905e-06,-4.873916329181e-05
-0.00163818607557929,0.00618373192451786,3.33777931372632e-06,-5.41110562346492e-05
-0.00163949737784251,0.00618399418497051,1.71124234733756e-06,-5.56139277546657e-05
-0.00164017687083345,0.00618548430117871,6.99716486254242e-07,-5.38068545006264e-05
-0.00164020071269278,0.00618885792427408,3.66325695509993e-07,-5.17759468080231e-05
-0.00164085636382439,0.00619061030093493,-3.21435948519849e-07,-5.11063668916238e-05
-0.00164190540563496,0.00619198120784647,-2.01301647121365e-06,-4.95569083836814e-05
-0.00164368162415514,0.00619809664476494,-3.88247411977137e-06,-4.46157837971307e-05
-0.0016444922473724,0.00620659626761653,-4.81480106865085e-06,-3.75848047555505e-05
-0.00164395580553745,0.00621191300224739,-4.98847415917316e-06,-3.21524081270445e-05
-0.00164424190784943,0.00621433295096951,-5.32447113491405e-06,-2.98261710015801e-05
-0.00164450416830207,0.00621774233685388,-5.70213465262999e-06,-2.81804480829422e-05
-0.0016430021311642,0.00622348822495271,-4.78518341609762e-06,-2.3149288156209e-05
-0.00163970003364682,0.00623362101516849,-1.85757512733466e-06,-1.25598297743147e-05
-0.00163611183381747,0.00624847449353185,1.9384625465662e-06,1.72075763306189e-06
-0.00163253555491779,0.00626299418586458,4.78565240460138e-06,1.49166898011253e-05
-0.0016309023875536,0.00627238787844109,6.24945952990352e-06,2.37616788651424e-05
-0.00162956724343105,0.00627777613864995,7.41207332985419e-06,2.97698493552189e-05
-0.00162770757840321,0.006284761803434,8.9289267347741e-06,3.65418156003743e-05
-0.00162668237845197,0.00629400052392486,9.81313150236322e-06,4.40116071305967e-05
-0.00162709961099026,0.00629777945862886,8.75117902989311e-06,4.78142241629329e-05
-0.0016304493922263,0.00629322566349659,6.00604247100529e-06,4.49565379435381e-05
-0.00163208255959049,0.00628790892886573,3.03101786443259e-06,3.76666888782962e-05
-0.00163521776409255,0.00628107823616733,4.62973387829826e-07,3.05762338887527e-05
-0.001637733080252,0.00627617873407476,-2.2531841518257e-06,2.64454481314268e-05
-0.00163984308480281,0.00627543963643549,-5.02920885859116e-06,2.59465253444094e-05
-0.00164085636382439,0.00627926625485815,-6.23760946491811e-06,2.89865758276613e-05
-0.00163955698249084,0.00628386773370908,-4.48349639287848e-06,3.38697062994377e-05
-0.0016350270292179,0.00628688372891448,-4.3642895445318e-07,3.69745384228926e-05
-0.0016297579783057,0.00628500022202731,3.97393142571812e-06,3.59005181803743e-05
-0.00162700424355294,0.00628141202219796,7.53530839450898e-06,3.20695857754563e-05
-0.00162411937857386,0.00627795495259493,1.00395006274457e-05,2.82492353798933e-05
-0.00162261734143599,0.00627324618537701,1.12577488154031e-05,2.45865268408234e-05
-0.00162245044842067,0.00626710690659922,1.08709870729418e-05,1.92752104806217e-05
-0.00162475118784614,0.00626086033945443,9.25328989099521e-06,1.22342110156078e-05
-0.00162653932729598,0.00625375546537372,7.25408260423622e-06,5.62238300022109e-06
-0.00162796983885585,0.00624746121451027,5.1539109227184e-06,9.62258919401565e-07
-0.00163040170850764,0.00624499358206949,2.65606673214525e-06,-2.03273287368704e-06
-0.00163407335484465,0.00624307431239333,-1.11450137955801e-07,-3.78739851501483e-06
-0.00163533697338921,0.00624136961945114,-2.41657381999266e-06,-4.09265539984853e-06
-0.00163677940587875,0.00624175108920044,-3.79301551062325e-06,-3.29426942166675e-06
-0.00163750658258835,0.00624308623332299,-4.37123202817806e-06,-2.53114625180125e-06
-0.00163760195002567,0.00624147690781813,-4.3740082686868e-06,-2.41389825509447e-06
-0.00163702974540172,0.00624047554972622,-4.04665291680611e-06,-2.83978432863806e-06
-0.00163669595937109,0.00623974837301662,-4.03195462689292e-06,-4.20528168652761e-06
-0.00163806686628263,0.006235421075548,-4.90143401517377e-06,-7.19021387689246e-06
-0.00163908014530421,0.00623050965252576,-6.18409110194383e-06,-1.10893171820292e-05
-0.00163953314063151,0.00622769631312468,-6.70865446709498e-06,-1.4133662568283e-05
-0.00163902054065588,0.0062255028620662,-6.10492199827787e-06,-1.6145885320612e-05
-0.00163782844768932,0.00622094906693393,-5.18373926908185e-06,-1.92170018731913e-05
-0.00163780460582999,0.00621528662534276,-4.67018263034866e-06,-2.4613161170951e-05
-0.00163720855934671,0.00620976723490758,-4.43405127075168e-06,-3.02497168871653e-05
-0.00163688669424574,0.00620694197457683,-4.24910569761964e-06,-3.26056202123648e-05
-0.00163745889886969,0.00620793141173907,-4.41883873752893e-06,-3.04430364948968e-05
-0.00163800726163431,0.00621292628126897,-5.19542738660793e-06,-2.53471733687846e-05
-0.00163912782902287,0.00621975697396737,-6.30868240064126e-06,-1.9030601912533e-05
-0.00164053449872342,0.00622589625274517,-7.47849416723716e-06,-1.16019202517072e-05
-0.00164108286148804,0.00623455084768241,-8.66451758539947e-06,-2.85953029779056e-06
-0.00164287100093788,0.00624290741937801,-9.42627376256118e-06,5.72151091318693e-06
-0.00164170274983065,0.00624871291212516,-8.92131542060728e-06,1.11762093505114e-05
-0.00163980732201381,0.0062479022889079,-7.17198010529637e-06,1.12446741375973e-05
-0.00163879404299224,0.00624264515892536,-5.54729897235907e-06,6.14219402478778e-06
-0.00163822183836829,0.00623531378718101,-5.19128311452824e-06,-1.83041264154769e-06
-0.00163848409882093,0.00622617043412747,-5.56727255200445e-06,-1.02126534447689e-05
-0.00163826952208695,0.00621882714145345,-5.34326344389315e-06,-1.7762494572778e-05
-0.00163738737329169,0.00621273554639432,-4.13656083507258e-06,-2.40845600868204e-05
-0.00163548002454519,0.00620801485824673,-2.43035566147759e-06,-2.84443726771132e-05
-0.00163345346650204,0.00620738304897446,-1.86552453197938e-07,-2.94985177684822e-05
-0.00162942419227506,0.00621063746277317,3.31520135113187e-06,-2.63066378795956e-05
-0.00162544260176674,0.00621761120662756,8.22708755338661e-06,-1.94995683340983e-05
-0.00161947021600427,0.00622547902020687,1.35964492812282e-05,-1.15425349151601e-05
-0.00161511907667631,0.00623179711292965,1.8236290039527e-05,-5.82325498292142e-06
-0.00161136398383164,0.00623294152217755,2.15193195727753e-05,-4.77483651318711e-06
-0.00161070833270003,0.00623019970835446,2.32686333564396e-05,-7.97799113577728e-06
-0.00160965929088946,0.0062255386248552,2.35340510499676e-05,-1.20448639843268e-05
-0.00161049375596605,0.00622613467133848,2.26565726836712e-05,-1.31283057391299e-05
-0.0016125560767982,0.00622863806656826,2.09817314572329e-05,-1.00472463703168e-05
-0.00161589393710458,0.0062342409035111,1.82521144415964e-05,-4.8474875615691e-06
-0.00161905298346597,0.00623911656374434,1.37614287532722e-05,-3.42403774593228e-07
-0.00162631282963233,0.00624269284264403,7.4855843349216e-06,2.48912149725453e-06
-0.00163319120604939,0.00624496974021016,7.89720391115052e-07,4.73315501910195e-06
-0.00163798341977497,0.00624818839121988,-4.42041495051089e-06,7.90558173268331e-06
-0.00164098749405071,0.0062536243351474,-7.33718515790903e-06,1.23876683823575e-05
-0.00164277563350055,0.00625815428842034,-8.89892895187977e-06,1.68734109456612e-05
-0.00164477834968438,0.00626060999993145,-1.06892396894463e-05,1.89330397481389e-05
-0.00164698372167252,0.00625871457211462,-1.32156698076885e-05,1.67528983055843e-05
-0.00164958248433962,0.0062532071026091,-1.54711916091011e-05,1.11415813135259e-05
-0.00165011892617458,0.00624867714933617,-1.62940152536414e-05,5.6292584318841e-06
-0.00165032158197889,0.00624669827501167,-1.57833199833561e-05,3.82496885724614e-06
-0.00164890299134868,0.0062491182237338,-1.48760913779982e-05,6.54452586509028e-06
-0.00164787779139744,0.00625590123271353,-1.38062821605278e-05,1.18758625901475e-05
-0.00164648304262656,0.00626155175337504,-1.18952612383354e-05,1.77405225004625e-05
-0.00164349088928049,0.00626666583220159,-9.03620330857507e-06,2.35334870215702e-05
-0.00164062986616074,0.00627383031093063,-6.38587779218332e-06,2.92839006527791e-05
-0.00163962850806883,0.0062787298130232,-4.88572411413192e-06,3.43986234589235e-05
-0.00163834104766494,0.00628201998961091,-3.73846730180588e-06,3.79738715423796e-05
-0.00163589725708349,0.00628412999416172,-1.21405055513836e-06,3.96572207633543e-05
-0.0016315580386852,0.0062840346267244,3.23229443393423e-06,3.93686764594388e-05
-0.00162683735053762,0.0062813285756903,8.18759142307586e-06,3.66461459670865e-05
-0.00162338028093459,0.0062757138178178,1.13655521766244e-05,3.12703777969139e-05
-0.00162398824834754,0.00626895465069739,1.10901821075068e-05,2.43733190424669e-05
-0.00162808904815251,0.00626275576727127,7.29537931204388e-06,1.78400170481693e-05
-0.00163326273162739,0.00625685490708678,1.82024903012713e-06,1.23561087956446e-05
-0.00163768539653333,0.00625131167479227,-2.62766052683145e-06,6.9143154176161e-06
-0.00164030800105977,0.00624502934485849,-4.57289501744799e-06,6.29454116893841e-07
-0.00164039144756743,0.00623910464281467,-4.69892171934633e-06,-5.78755224378517e-06
-0.00163936624761619,0.00623273886637323,-4.25906022293363e-06,-1.09822074433493e-05
-0.00163905630344488,0.00622949637350418,-3.20092908097689e-06,-1.47118012105764e-05
-0.00163685093145674,0.00622655190387677,-7.51957973237702e-07,-1.77887661059855e-05
-0.0016331196804714,0.00622295178311776,2.72111031589388e-06,-2.05664117644998e-05
-0.00162996063411001,0.00622160471806554,5.76048569615747e-06,-2.23284531590618e-05
-0.00162855396440947,0.00622113980180858,7.60738593934536e-06,-2.22533598968329e-05
-0.00162818441558983,0.00622291602032876,8.68587587921897e-06,-2.04614252673266e-05
-0.00162657509008498,0.00622531212719155,9.18915717701162e-06,-1.80596069411072e-05
-0.00162794599699652,0.00622667111317343,8.3880721253976e-06,-1.64900229548473e-05
-0.00163145075031821,0.00622569359694085,5.6987290095971e-06,-1.66703805936148e-05
-0.00163515815944422,0.00622487105279392,1.46750483267955e-06,-1.82680826151343e-05
-0.00163999805688846,0.00622305907148475,-3.60599326265899e-06,-1.98634172331132e-05
-0.00164612541473659,0.00622158087620621,-8.84415867986671e-06,-2.02387395397137e-05
-0.00165038118662722,0.00622309483427374,-1.30353463891575e-05,-1.93446881593212e-05
-0.0016513944656488,0.00622493065744225,-1.45647556309856e-05,-1.75266630793499e-05
-0.00165023813547123,0.00622822083402996,-1.28203178160987e-05,-1.42238013150699e-05
-0.00164670954029021,0.00623254813149858,-8.92155159951741e-06,-8.56279966065547e-06
-0.00164221534980627,0.00624078549389753,-4.69670410645571e-06,-1.42980023490971e-06
-0.00163898477786689,0.00624699629825331,-1.4878536717936e-06,4.21368687662408e-06
-0.00163834104766494,0.00624702014011265,8.3542856047631e-08,5.96948060914884e-06
-0.00163754234537735,0.00624586380993508,3.47509251236179e-07,4.49103748313116e-06
-0.00163707742912039,0.00624548234018578,9.49723502723368e-07,2.5879297474849e-06
-0.00163491974085091,0.00624383725189193,3.7251047807482e-06,2.0897147492256e-06
-0.00163015136898466,0.00624330081005697,8.48152932690619e-06,2.30095654798589e-06
-0.00162551412734474,0.00624400414490724,1.29334322685176e-05,1.4961827451177e-06
-0.00162341604372359,0.00624157227525546,1.54617832106298e-05,-8.34468789097964e-07
-0.00162274847166231,0.00623803175914477,1.66386583834069e-05,-3.62435450385797e-06
-0.00162172327171107,0.00623630322434325,1.71123552004526e-05,-5.67069838245374e-06
-0.00162386903905088,0.00623593367552362,1.56011119893645e-05,-6.77649531510324e-06
-0.00162881622486211,0.00623540915461833,1.08080082294971e-05,-7.34141507720314e-06
-0.00163538465710787,0.00623441971745608,4.30984202513498e-06,-7.44160647208368e-06
-0.00164034376384877,0.00623594559645328,-6.37831225382653e-07,-7.09847223038418e-06
-0.00164325247068718,0.00623588599180496,-2.86959401944269e-06,-7.37653567745914e-06
-0.00164386043810013,0.00623254813149858,-3.84890952537885e-06,-1.00409436059958e-05
-0.00164480219154371,0.0062281731503113,-4.47689066556137e-06,-1.52025495817812e-05
-0.0016444922473724,0.00622351206681204,-3.63600444433232e-06,-1.99200187069683e-05
-0.00164155969867466,0.00622313059706274,-7.05349666364571e-07,-2.04053760030762e-05
-0.00163795957791564,0.00622806586194431,2.36100871928758e-06,-1.56354979767168e-05
-0.00163891325228889,0.00623594559645328,2.87084966701806e-06,-7.83866552185537e-06
-0.00164102325683971,0.00624451674488287,3.04951572777753e-07,3.41613461907306e-07
-0.00164462337759873,0.00625149048873725,-3.72700117909413e-06,7.63014229268219e-06
-0.00164976129828461,0.00625757016286672,-7.59692035705512e-06,1.2980956020831e-05
-0.00165240774467038,0.00625901259535626,-1.05729093994779e-05,1.49205274791724e-05
-0.00165412435854223,0.00625811852563134,-1.23060342389435e-05,1.35831806363323e-05
-0.00165514955849347,0.00625630654432217,-1.28014522955957e-05,1.18924156118916e-05
-0.00165511379570447,0.00625739134892174,-1.28174586406554e-05,1.25563986785763e-05
-0.00165578136776575,0.00625871457211462,-1.31786465818085e-05,1.44778385691478e-05
-0.00165623436309304,0.00625884570234094,-1.35112071447381e-05,1.42291835602504e-05
-0.00165541181894611,0.00625569857690922,-1.24718292158607e-05,1.09199097115095e-05
-0.00165224085165506,0.0062517527491899,-9.46546417042938e-06,7.4195814188175e-06
-0.00164893875413768,0.00625076331202765,-5.48763083606482e-06,6.41288190116057e-06
-0.00164554128918298,0.0062516812236119,-1.98550970832519e-06,7.47016831346877e-06
-0.00164241800561059,0.00625361241421773,5.61505101653084e-07,9.00552812741371e-06
-0.00164132128008135,0.00625456608859098,2.55221807768499e-06,1.09991462962597e-05
-0.00163991461038081,0.00625764168844471,4.22190889550279e-06,1.39202333879733e-05
-0.00163825760115728,0.00626038350226781,5.30497869667695e-06,1.63884949208653e-05
-0.00163822183836829,0.00625950135347255,5.69113075472871e-06,1.62586648331148e-05
-0.00163867483369558,0.00625619925595517,5.90332100171949e-06,1.35946887798377e-05
-0.00163756618723668,0.00625371970258473,6.63083517021501e-06,1.04321855570221e-05
-0.00163621912218446,0.00624991692602139,7.93578517109725e-06,7.50990963950916e-06
-0.00163545618268586,0.00624506510764748,9.16577471418224e-06,3.26505899816984e-06
-0.00163509855479589,0.00623868741027638,9.6525210615372e-06,-3.2634144669946e-06
-0.00163514623851456,0.00623128451295403,9.31522535682767e-06,-1.01963326435866e-05
-0.00163631448962179,0.00622649229922845,8.52771905288987e-06,-1.44902513452752e-05
-0.00163700590354239,0.00622565783415185,7.59854552996716e-06,-1.46660232975579e-05
-0.00163862714997692,0.00622960366187117,6.57639855228656e-06,-1.09480179985817e-05
-0.0016392589592492,0.0062358025452973,5.480508655572e-06,-4.04465196867978e-06
-0.00164011726618512,0.00624369420073594,4.49432238257578e-06,4.61819012668093e-06
-0.00164158354053399,0.00625141896315926,3.86140056766844e-06,1.22873223829638e-05
-0.00164114246613636,0.00625528134437092,3.65015263467749e-06,1.65064925830084e-05
-0.00164114246613636,0.00625573433969821,3.60086612943261e-06,1.74702198231129e-05
-0.00164190540563496,0.00625458993045032,3.16502743045237e-06,1.72935298067175e-05
-0.00164328823347618,0.00625479258625463,1.8254987455337e-06,1.68310540136518e-05
-0.00164499292641836,0.00625226534916552,-4.46629760735248e-07,1.48675187887824e-05
-0.00164808044720176,0.00624719895405763,-3.06564978140387e-06,1.09856697362282e-05
-0.0016498685866516,0.00624413527513357,-5.22930037039633e-06,7.49155462692879e-06
-0.00165107260054783,0.00624392069839958,-6.35339250276931e-06,7.15990959823933e-06
-0.00165089378660284,0.00624604262388007,-6.10417881361358e-06,1.00872234293863e-05
-0.00164841423323239,0.00624930895860845,-4.38128912887822e-06,1.406407930809e-05
-0.00164624462403325,0.00625364817700673,-1.66310940822221e-06,1.72599212158686e-05
-0.00164365778229581,0.00625484026997329,8.3715161459027e-07,1.92105971254608e-05
-0.00164177427540864,0.00625528134437092,1.9284675075056e-06,1.99231437900853e-05
-0.00164246568932925,0.00625498332112928,1.4715891142532e-06,1.96863585117517e-05
-0.00164365778229581,0.00625547207924557,2.87005306548028e-07,1.93483972661713e-05
-0.00164457569388006,0.00625448264208332,-9.99610475540403e-07,1.89656259844482e-05
-0.00164582739149495,0.00625195540499421,-2.53003440044587e-06,1.63406626600299e-05
-0.00164742479607015,0.00624496974021016,-4.47166121378469e-06,8.97568844661346e-06
-0.00164954672155063,0.00623438395466709,-6.2852176816344e-06,-2.17029193907767e-06
-0.00164999971687792,0.00622336901565605,-7.20143527397355e-06,-1.2920084910414e-05
-0.00164921293551999,0.00621624029971601,-7.05604585141894e-06,-2.06325203795946e-05
-0.0016483784704434,0.00621048249068752,-6.13619859057205e-06,-2.68093738237836e-05
-0.00164672146121987,0.00620380677007477,-4.54332533890367e-06,-3.39990052631622e-05
-0.00164440880086474,0.00619596279835479,-2.46474275603005e-06,-4.219707420494e-05
-0.00164170274983065,0.00618889368706308,-9.59850184247107e-07,-4.99116267769828e-05
-0.00164295444744554,0.00618251598969197,-1.48643298979992e-06,-5.68162060796607e-05
-0.00164537439616766,0.00617702044111612,-4.18109292212925e-06,-6.29724874023754e-05
-0.0016475440053668,0.00617415941799637,-7.26052455895461e-06,-6.67486096988762e-05
-0.00164873609833336,0.00617502964586196,-8.74189605018991e-06,-6.62870294627328e-05
-0.00164865265182571,0.00617940462704924,-8.36014513419749e-06,-6.26377192091234e-05
-0.00164698372167252,0.00618435181286048,-7.22464922273531e-06,-5.90158523316582e-05
-0.001645255186871,0.00618671215693427,-6.07820936745888e-06,-5.70496495055525e-05
-0.00164368162415514,0.0061886791103291,-4.82218173743541e-06,-5.58164246856334e-05
-0.00164248953118858,0.00619192160319815,-3.51672602379351e-06,-5.41207440101009e-05
-0.00164114246613636,0.00619529522629352,-2.61273147177136e-06,-5.10339740860061e-05
-0.00163991461038081,0.00620303190964651,-1.87802179321358e-06,-4.42558752077346e-05
-0.00163782844768932,0.0062179092298692,-2.33977293369706e-07,-3.12595374990831e-05
-0.00163505087107723,0.00623546875926666,2.63104680993585e-06,-1.32261351086811e-05
-0.00163223753167615,0.00625546015831591,5.43878922762179e-06,4.90024235471521e-06
-0.0016293765085564,0.00627167262266115,7.13768192407322e-06,1.98605007259642e-05
-0.00162767181561421,0.00628520287783163,8.82623623300598e-06,3.3268214101959e-05
-0.00162454853204182,0.00630114116079456,1.24493827307786e-05,4.75844356153039e-05
-0.00161850462070135,0.00631511249036267,1.76731661801635e-05,6.10839700271912e-05
-0.00161414156044373,0.00632479228525116,2.13710722679626e-05,6.9193844369765e-05
-0.00161519060225431,0.00632587708985073,2.06010709690738e-05,6.94850359445346e-05
-0.00162072191361916,0.00631980933665093,1.52916653453612e-05,6.32646805369322e-05
-0.00162720689935725,0.00631172694633764,7.84689671806004e-06,5.35382874786214e-05
-0.00163376341067334,0.00630320348162672,1.026897569223e-06,4.36290454734622e-05
-0.00163898477786689,0.00629595555639002,-3.60533065776342e-06,3.6615915928518e-05
-0.00164117822892536,0.00629372634254255,-6.29137193860227e-06,3.34953756397154e-05
-0.00164315710324985,0.00629425086344784,-8.72370865630783e-06,3.24107535662056e-05
-0.00164676914493854,0.00629444159832249,-1.22078749717453e-05,3.18660778242091e-05
-0.00165044079127555,0.00629599131917902,-1.56905474072555e-05,3.36895608539018e-05
-0.00165081034009518,0.00630321540255638,-1.66339268834653e-05,3.98001299247245e-05
-0.00164892683320801,0.00631126203008068,-1.44592758177515e-05,4.6605168497569e-05
-0.00164618501938492,0.00631182231377496,-1.18661308715885e-05,4.65983945227862e-05
-0.00164569626126863,0.0063015107096142,-1.16046674662368e-05,3.68055739755322e-05
-0.00164763937280413,0.00628818311024803,-1.29854430297186e-05,2.26413506737664e-05
-0.00164718637747683,0.00627936162229548,-1.30066626217472e-05,1.16938486741322e-05
-0.00164421806599009,0.00627263821796407,-1.01020023959611e-05,6.2126878957368e-06
-0.00164003381967746,0.0062699917715783,-5.12172657605272e-06,3.73383216819463e-06
-0.00163354883393936,0.00627098120874054,6.76683278402805e-07,2.53851930707013e-06
-0.00162813673187117,0.00627120770640419,6.44745106239165e-06,3.01406724028214e-06
-0.00162435779716717,0.00627205409241045,1.07691359890779e-05,4.52210642328474e-06
-0.00162206897867137,0.00627270974354206,1.23577964513111e-05,4.60874393864848e-06
-0.00162291536467763,0.00627157725522383,1.24978907269956e-05,2.38030276736841e-06
-0.0016206027043225,0.00626891888790839,1.45542226152403e-05,3.65636714040895e-07
-0.00161577472780792,0.00626993216692997,1.97481293723049e-05,1.40940260264767e-06
-0.00161025533737274,0.00627322234351768,2.51746635894352e-05,4.73985697783788e-06
-0.00160858640721955,0.00627599992012977,2.76004126052121e-05,6.50822891774692e-06
-0.00160847911885256,0.00627256669238607,2.77079813883558e-05,3.89741432867592e-06
-0.0016076327328463,0.00626581944619533,2.84903709059687e-05,-2.39538059323952e-06
-0.0016065240863874,0.00625901259535626,3.03792702797915e-05,-9.80668540061532e-06
-0.00160682210962904,0.00625187195848655,3.03512710295474e-05,-1.70370406029282e-05
-0.00161112556523833,0.00624315775890098,2.57756768523995e-05,-2.48504028562308e-05
-0.00162087688570481,0.00623376406632448,1.70757388683375e-05,-3.41442434792132e-05
-0.00163164148519286,0.00622373856447569,6.32602549387359e-06,-4.41609236918329e-05
-0.00164260874048524,0.00621544159742842,-4.78313300462388e-06,-5.29756406902222e-05
-0.00165410051668289,0.0062072280768888,-1.48339854056655e-05,-5.91830866532745e-05
-0.00166111002332628,0.00620441473748772,-2.23231305683897e-05,-6.25702638443895e-05
-0.00166563997659921,0.00620394982123076,-2.68033881297767e-05,-6.36050379522532e-05
-0.00166985998570084,0.00620256699338955,-2.94844287064152e-05,-6.30938663559264e-05
-0.00167157659957269,0.00620363987705945,-3.15644919943702e-05,-6.21272841736313e-05
-0.00167251835301628,0.0062045577886437,-3.25841867675323e-05,-6.12915590077016e-05
-0.00167263756231293,0.00620533264907197,-3.13946071679665e-05,-5.95943739615896e-05
-0.00166937122758455,0.00620971955118892,-2.81778324054898e-05,-5.49093274812592e-05
-0.00166587839519253,0.00621795691358786,-2.44444121798917e-05,-4.59242981251938e-05
-0.00166343460461108,0.00623027123393245,-2.13298765447108e-05,-3.32376498252891e-05
-0.00166071663264731,0.00624512471229581,-1.88193956660618e-05,-1.84584290407849e-05
-0.00165970335362574,0.00625894106977827,-1.63943896996379e-05,-3.04144217210786e-06
-0.00165623436309304,0.006273424999322,-1.34511406050045e-05,1.16382068807668e-05
-0.00165237198188138,0.00628585852896324,-9.16579168514157e-06,2.40709274889172e-05
-0.00164687643330553,0.00629408397043252,-2.99500704446491e-06,3.35234844815848e-05
-0.00164008150339612,0.00630061663988928,4.39889929988999e-06,4.08169340397383e-05
-0.00163279781537043,0.00630706586283838,1.14159709898706e-05,4.72241736827366e-05
-0.00162751684352856,0.00631086863940171,1.69239117999773e-05,5.25347798240629e-05
-0.00162483463435379,0.00631352700671715,2.07886184209023e-05,5.49235807077388e-05
-0.0016228199972403,0.00631014146269211,2.29084779623924e-05,5.297576919394e-05
-0.00162228355540535,0.00630387105368799,2.26087629747556e-05,4.74237598280679e-05
-0.00162696848076394,0.00629704036098959,1.95678313816409e-05,4.06527327075453e-05
-0.00163195142936417,0.00628991164504955,1.47935420006285e-05,3.47153941109408e-05
-0.00163611183381747,0.00628434457089571,1.00135816802436e-05,2.99811979798638e-05
-0.00164047489407509,0.0062794212269438,6.29567756901329e-06,2.55668976932023e-05
-0.0016441465404121,0.00627365149698564,3.67998308139992e-06,2.08580396864109e-05
-0.00164514789850401,0.0062692288320797,1.82887749592751e-06,1.64355263227866e-05
-0.0016471625356175,0.00626452006486178,3.86490725326455e-07,1.33880107576213e-05
-0.00164934406574631,0.00626225508822531,-1.21374545881248e-06,1.18247418073879e-05
-0.00165171633074977,0.00626068152550945,-3.57613479809295e-06,1.04626605129917e-05
-0.00165454159108052,0.00625761784658538,-6.63951617645443e-06,7.95715010754551e-06
-0.0016581893955582,0.00625221766544686,-9.47318825677883e-06,4.46702899665786e-06
-0.00165979872106306,0.00624882020049215,-1.10668431423598e-05,1.58877316696731e-06
-0.00165964374897741,0.00624885596328115,-1.11631760715127e-05,7.89215573032384e-07
-0.00165930996294677,0.00624802149820456,-1.012371894102e-05,2.25955033975229e-06
-0.00165692577701365,0.00624997653066972,-8.21493210509099e-06,5.44599299328961e-06
-0.00165512571663414,0.00625575818155755,-5.41642420893059e-06,1.02725844652218e-05
-0.00165076265637652,0.00626142062314872,-1.8973170285459e-06,1.71578919280771e-05
-0.00164738903328115,0.00626841820886244,1.75135755716169e-06,2.56603813393513e-05
-0.00164508829385568,0.00627622641779342,4.95972772795357e-06,3.37570112968414e-05
-0.00164164314518232,0.00628186501752526,7.5483646310716e-06,3.91204131085277e-05
-0.00163991461038081,0.00628180541287693,9.40825042271774e-06,4.08171382206374e-05
-0.0016395689034205,0.00628006495714575,1.01783808883554e-05,3.90343379082547e-05
-0.00163996229409947,0.00627372302256364,9.76267507497298e-06,3.35298128674227e-05
-0.00164064178709041,0.00626349486491053,8.95067962515928e-06,2.37645059499025e-05
-0.00164054641965308,0.00625083483760564,8.76802439973115e-06,1.08726421523116e-05
-0.00164045105221576,0.0062364939592179,9.11033643549276e-06,-2.07283968226822e-06
-0.00164130935915168,0.00622532404812122,8.81954600767863e-06,-1.29048522709793e-05
-0.00164170274983065,0.00621657408574665,7.46779599647031e-06,-2.24338267296596e-05
-0.00164273987071156,0.00620543993743896,6.20116895361988e-06,-3.23952338242773e-05
-0.00164393196367812,0.00619525946350452,6.05578966217524e-06,-4.22378189447169e-05
-0.00164349088928049,0.00618804730105682,6.16493498536262e-06,-4.96067602440807e-05
-0.00164362201950681,0.00618433989193081,4.81044107126931e-06,-5.34810612476365e-05
-0.00164718637747683,0.00618251598969197,1.92502473462273e-06,-5.50192397772141e-05
-0.00165064344707986,0.00618121660835842,-8.19823967480674e-07,-5.55326326745673e-05
-0.00165113220519615,0.00618252791062164,-2.53933518722235e-06,-5.55597836264012e-05
-0.00165252695396703,0.00618188418041969,-4.33666883895475e-06,-5.59321228663173e-05
-0.00165646086075669,0.00617964304564256,-7.34186366701194e-06,-5.74772260153832e-05
-0.00165947685596209,0.00617946423169757,-1.07419239497379e-05,-5.90358407680729e-05
-0.0016608954465923,0.00618027485491483,-1.28244979398575e-05,-5.79402916100514e-05
-0.00166114578611528,0.00618510283142941,-1.32503430233191e-05,-5.35390905572487e-05
-0.00166138420470859,0.00619084871952824,-1.31586089453485e-05,-4.82737763681804e-05
-0.00166172991166889,0.00619548596116817,-1.3443098940535e-05,-4.38784780258443e-05
-0.00166113386518561,0.00620179213296128,-1.40639345778121e-05,-3.8418450663978e-05
-0.00166215906513685,0.00621168650458375,-1.48457903168448e-05,-2.9005833451984e-05
-0.00166354189297807,0.0062251213923169,-1.57261996089572e-05,-1.59600276327149e-05
-0.00166300545114311,0.0062396172427903,-1.6088961146858e-05,-2.12950595910972e-06
-0.00166152725586458,0.00625388659560004,-1.49937043150871e-05,1.07134426507188e-05
-0.00165913114900179,0.0062654141345867,-1.24632115582531e-05,2.23405315158984e-05
-0.00165643701889736,0.0062757138178178,-9.60335750507553e-06,3.17426352952936e-05
-0.001652884581857,0.00628269948260185,-6.98833472575035e-06,3.71967288379172e-05
-0.00164955864248029,0.006284726040645,-3.86208958378432e-06,3.88155343985822e-05
-0.00164588699614328,0.00628532208712829,4.05818994463709e-07,3.86876754246499e-05
-0.00164020071269278,0.00628600158011923,4.97959720537318e-06,3.81619718345831e-05
-0.0016365171454261,0.00628612078941588,8.62985075009682e-06,3.7168913288449e-05
-0.00163400182926666,0.00628659762660251,1.14293154746626e-05,3.64882016200626e-05
-0.00163035402478898,0.00628795661258439,1.41455630821085e-05,3.79112895883566e-05
-0.00162814865280084,0.00629309453327027,1.63728368550556e-05,4.08440610103104e-05
-0.00162770757840321,0.0062946084913378,1.67923103905786e-05,4.11418846315789e-05
-0.00162876854114345,0.00628865994743466,1.54121904520566e-05,3.54796881762615e-05
-0.00162940035041573,0.00628057755712137,1.40299208522428e-05,2.56015854088139e-05
-0.00163000831782867,0.00627331771095501,1.38057671068624e-05,1.6332052427289e-05
-0.00162999639689901,0.00626672543684992,1.36437670156125e-05,1.03142376657285e-05
-0.00163071165267895,0.00626467503694743,1.20102581088913e-05,6.55904467266873e-06
-0.00163347730836137,0.0062631253160909,9.37846545063754e-06,3.34900175724004e-06
-0.00163556347105285,0.00626016892553383,7.48079820913145e-06,2.20891852032359e-07
-0.00163545618268586,0.00625826157678733,6.62262050261993e-06,-2.9549015598173e-06
-0.0016369343779644,0.00625560320947189,5.26768604783524e-06,-6.60848823426612e-06
-0.00163967619178749,0.00625344552120242,2.39341449560947e-06,-1.02261180102009e-05
-0.00164259681955557,0.00625158585617458,-1.04896327277075e-06,-1.19039460405415e-05
-0.00164507637292602,0.00625486411183262,-3.4471792452148e-06,-1.03369540533505e-05
-0.00164543400081599,0.00625984706043285,-4.25340308888486e-06,-6.56783128476979e-06
-0.00164476642875471,0.00626335181375455,-3.82524416794008e-06,-2.78016930347571e-06
-0.00164344320556183,0.00626759566471551,-2.44607988761505e-06,2.36743726993299e-07
-0.0016407490754574,0.00627235211565209,-3.74814246480264e-07,3.44774324872141e-06
-0.00163905630344488,0.00627623833872308,1.56152256760781e-06,7.50036691865795e-06
-0.001637661554674,0.00628035105945772,2.22963460056229e-06,1.13665207550228e-05
-0.00163904438251521,0.00628430880810671,1.05403634400906e-06,1.36434298240356e-05
-0.001641440489378,0.00628576316152591,-1.6126651139088e-06,1.45593156142698e-05
-0.00164402733111544,0.00628601350104889,-4.6678944035449e-06,1.56358611072843e-05
-0.00164598236358061,0.00628913678462128,-6.60154034755631e-06,1.73362977558616e-05
-0.0016456724194093,0.00629093684500079,-6.28430655625395e-06,1.82076831788742e-05
-0.00164263258234457,0.00628904141718396,-4.04586609619436e-06,1.70551842399729e-05
-0.0016407133126684,0.00628736056610111,-1.65331960042311e-06,1.4907666651818e-05
-0.00163913974995254,0.00628653802195418,-6.35794156761046e-07,1.33453873189392e-05
-0.00163937816854585,0.00628474988250434,-8.17892496180538e-07,1.13867860856818e-05
-0.00163879404299224,0.00627896823161651,-9.70156897998985e-07,6.12591439434478e-06
-0.0016392589592492,0.00627019442738261,-6.54378637318624e-07,-2.98124442521825e-06
-0.00163879404299224,0.00626134909757072,-8.84405754294694e-07,-1.24133604556743e-05
-0.00164028415920044,0.006254387274646,-3.06073359385247e-06,-1.85599596641783e-05
-0.00164562473569064,0.00625125207014394,-7.57048927191854e-06,-2.20371669115943e-05
-0.00165089378660284,0.00624649561920736,-1.31393620872316e-05,-2.62786268827478e-05
-0.00165414820040156,0.00624042786600756,-1.72198332789326e-05,-3.27188402781099e-05
-0.00165458927479918,0.00623316801984119,-1.75698733925354e-05,-3.94414794357488e-05
-0.00165200243306174,0.00622763670847635,-1.41954984351263e-05,-4.42819966358062e-05
-0.00164622078217392,0.00622524060161356,-9.46198204684657e-06,-4.70054956218409e-05
-0.00164211998236894,0.00622386969470201,-5.61271119960341e-06,-4.79814508427826e-05
-0.00163962850806883,0.00622386969470201,-2.49466787531932e-06,-4.68046663396664e-05
-0.00163536081524854,0.00622773207591367,1.52005699192435e-06,-4.33513515983375e-05
-0.00162969837365737,0.00623174942921099,6.82580104555948e-06,-3.86138630758648e-05
-0.00162436971809684,0.00623642243363991,1.19866639878308e-05,-3.30247627963424e-05
-0.0016209841740718,0.00624452866581253,1.57017913891452e-05,-2.50513065334484e-05
-0.00161888609045065,0.00625520981879293,1.79248963037738e-05,-1.31950151023363e-05
-0.0016175509463281,0.00626914538557204,1.85839099924617e-05,9.94206311091461e-07
-0.00161972055552724,0.00628120936639365,1.64950345657183e-05,1.34914187356751e-05
-0.00162630090870267,0.00628798045444372,1.06023096879255e-05,2.15552499365146e-05
-0.00163462171760927,0.00629218854261568,1.74731101469478e-06,2.57782088585839e-05
-0.0016437293078738,0.00629408397043252,-7.60752296218428e-06,2.82036093382732e-05
-0.00165166864703111,0.00629417933786984,-1.51079980947769e-05,2.9710742186285e-05
-0.0016563178096007,0.00629446544018182,-1.94387913375037e-05,3.02640198210111e-05
-0.00165625820495237,0.00629535950990674,-2.0121632848779e-05,3.11174015564549e-05
-0.00165424356783888,0.0062976960121212,-1.74543730549017e-05,3.51912974058288e-05
-0.00164940367039464,0.00630610026753546,-1.27811226673861e-05,4.4188927616061e-05
-0.00164515981943368,0.00631808080184941,-8.08447081028406e-06,5.55238043960761e-05
-0.00164132128008135,0.00632382668994824,-4.80499696927265e-06,6.3249599723859e-05
-0.00164031992198944,0.00632313527602764,-3.09775232685957e-06,6.30168841088574e-05
-0.00163943777319418,0.00631637610890723,-2.23855781128955e-06,5.6022906871471e-05
-0.00163865099183625,0.00630666055122975,-1.43335508645856e-06,4.74701038078788e-05
-0.00163742313608069,0.00629965104458636,-1.48157105088849e-08,4.13431081374159e-05
-0.00163493166178058,0.006296134370335,2.7676866971174e-06,3.74931809205169e-05
-0.00163056860152296,0.00629107989615678,7.28173585250306e-06,3.35336676265299e-05
-0.00162558565292273,0.00628507174760531,1.23792238439521e-05,2.80514200411018e-05
-0.00162260542050632,0.00627855099907821,1.54923708311687e-05,2.13728120045341e-05
-0.00162343988558292,0.00627061165992091,1.51643241030043e-05,1.44687398905277e-05
-0.0016251445785251,0.00626415051604214,1.35145993221938e-05,8.13129721634755e-06
-0.0016243458762375,0.00625834502329499,1.46705034595778e-05,2.43969961885561e-06
-0.00161858806720901,0.00625147856780759,1.99306613459042e-05,-3.73476757795754e-06
-0.00161466608134902,0.00624381341003259,2.57580250738553e-05,-1.17192330043688e-05
-0.0016114831931283,0.00623377598725414,2.78009544346723e-05,-2.06837330450414e-05
-0.0016137362488351,0.00622756518289835,2.57734158271315e-05,-2.76414015281702e-05
-0.00161811123002238,0.00622348822495271,2.26885990926734e-05,-3.12973410193498e-05
-0.0016206027043225,0.00621973313210804,2.02736866258811e-05,-3.46572007245717e-05
-0.00162270078794365,0.00621275938825365,1.75285267490019e-05,-4.1645957089404e-05
-0.00162775526212187,0.00620323456545082,1.3455926967079e-05,-5.18424753959077e-05
-0.00163366804323602,0.00619365013799966,8.43383290534683e-06,-6.10023110053274e-05
-0.00163913974995254,0.00618757046387019,2.41631240895525e-06,-6.64945517417529e-05
-0.00164729366584382,0.006185973059295,-5.43728754183706e-06,-6.94428300642207e-05
-0.00165690193515431,0.00618394650125185,-1.4162911001136e-05,-7.12387918521665e-05
-0.00166351805111873,0.00618376768730686,-2.06445664136674e-05,-7.11363540337745e-05
-0.00166697512072176,0.00618661678949695,-2.36865774990026e-05,-6.86907847577525e-05
-0.00166907320434291,0.00619052685442727,-2.6141329358407e-05,-6.57376512304266e-05
-0.00167475948779341,0.00619218386365079,-3.06279241882251e-05,-6.3641291221964e-05
-0.00167946825501134,0.00619601048207345,-3.50725813900329e-05,-6.05210420684001e-05
-0.00167961130616732,0.00620255507245988,-3.54654060754345e-05,-5.3711899648505e-05
-0.00167630920864995,0.00621428526725085,-3.17511164917602e-05,-4.36800962467493e-05
-0.00167317400414789,0.00622426308538098,-2.75835421626439e-05,-3.29924057752541e-05
-0.00166981230198218,0.00623552836391499,-2.46411336586553e-05,-2.22629678086694e-05
-0.00166636715330882,0.00624917782838212,-2.06595397254634e-05,-9.69820908845346e-06
-0.00165964374897741,0.00626440085556512,-1.36382949546438e-05,5.58403891744284e-06
-0.00165121565170381,0.00628165044079127,-4.9221582467604e-06,2.20066636556202e-05
-0.00164364586136614,0.00629726685865324,3.03163517706613e-06,3.7269720230655e-05
-0.00163762579188501,0.00630981959759114,9.394221375149e-06,4.97998194453688e-05
-0.00163255939677712,0.00632048882964187,1.40620138355577e-05,5.87198586369231e-05
-0.00163160572240387,0.00632596053635839,1.61841634543158e-05,6.43302735136695e-05
-0.00163238058283213,0.00632951297339874,1.53543335772306e-05,6.83845028207498e-05
-0.00163480053155425,0.00633527078242724,1.2867165538644e-05,7.17811049406131e-05
-0.00163757810816634,0.00633572377775453,1.03534376099624e-05,7.2197769637101e-05
-0.00164021263362245,0.00632933415945376,8.30762177138121e-06,6.64869973144569e-05
-0.00164183388005697,0.00632010735989257,6.94599123504115e-06,5.55445108663173e-05
-0.00164128551729235,0.00630929507668585,6.94176102535598e-06,4.41180476197226e-05
-0.00164080868010573,0.00630037822129597,8.00979104420715e-06,3.52359963391278e-05
-0.0016410947824177,0.0062931183751296,8.35909852060468e-06,2.7591901732637e-05
-0.00164195308935363,0.00628585852896324,7.15269748165238e-06,1.9384768261456e-05
-0.00164285908000821,0.00627881325953086,6.07193818454999e-06,1.1755128104767e-05
-0.00164283523814888,0.00627381839000096,6.71937908203696e-06,6.640200494419e-06
-0.0016418219591273,0.00627120770640419,7.96486064162292e-06,3.83367718231928e-06
-0.00164159546146366,0.00627095736688121,7.95740872939715e-06,2.41525234939621e-06
-0.00164211998236894,0.00627162493894249,7.31599221507674e-06,2.88020394671029e-06
-0.00164206037772062,0.00627398528301628,7.64210790783458e-06,5.28649720609299e-06
-0.00164235840096226,0.00627677478055804,7.93665650187923e-06,7.19119857226751e-06
-0.00164403925204511,0.00627626218058241,5.74587914721426e-06,6.42232991112044e-06
-0.00164756784722613,0.00627483166902254,1.56355858133245e-06,4.56305035754771e-06
-0.00165187130283542,0.00627498664110819,-1.37659539697197e-06,4.5091376298619e-06
-0.00165236006095171,0.00627652444103506,-2.19859742687428e-06,5.43184863317782e-06
-0.00165315876323931,0.00627435483183591,-3.79178928318237e-06,3.58524134761227e-06
-0.00165736685141127,0.00627019442738261,-7.7385723435157e-06,-2.01591152617385e-06
-0.00166136036284926,0.00626380480908184,-1.10805695538312e-05,-7.98998502142399e-06
-0.00166057358149133,0.00626064576272045,-1.05330943414477e-05,-1.09765599116775e-05
-0.00165640125610836,0.00626237429752197,-7.46634516410743e-06,-1.05119334377912e-05
-0.00165538797708678,0.00626632012524129,-5.71024376904181e-06,-6.92675680416364e-06
-0.00165630588867103,0.00627241172030042,-5.92941230847977e-06,1.26714937626144e-07
-0.00165435085620587,0.00628256835237553,-5.42522755835671e-06,9.14377537425102e-06
-0.00165199051213208,0.00628958977994858,-2.98255106962949e-06,1.54270983452451e-05
-0.00165061960522053,0.00628836192419302,-7.01665769203098e-07,1.49509745010206e-05
-0.00164942751225397,0.00628261603609419,-5.16915085233796e-07,8.5171854975798e-06
-0.0016506315261502,0.00627489127367087,-1.53553555936215e-06,3.22077911653525e-07
-0.00165077457730619,0.00626789368795715,-1.94856603225182e-06,-6.55229475527134e-06
-0.00165035734476789,0.00626343526026221,-1.6196552536229e-06,-1.16331272868651e-05
-0.00165034542383822,0.0062597636139252,-1.37592729800046e-06,-1.53341199801095e-05
-0.00164966593084728,0.0062569860373131,-1.09114862901617e-06,-1.81616361184111e-05
-0.00164773474024145,0.00625427998627901,-4.49474817810493e-08,-2.15815954430996e-05
-0.00164763937280413,0.00624834336330553,1.45336798907363e-06,-2.76013129694046e-05
-0.00164581547056529,0.00623970068929795,2.14263402518865e-06,-3.64270613399386e-05
-0.00164610157287726,0.00623090304320473,1.36429292738388e-06,-4.51885730719076e-05
-0.00164862880996637,0.00622705258292273,-3.17015903319761e-07,-4.9866609225394e-05
-0.00164972553549561,0.00622816122938163,-1.90706497377836e-06,-4.8909856511234e-05
-0.00164960632619895,0.00623201168966363,-2.7329024082982e-06,-4.50172378922645e-05
-0.00165054807964254,0.00623422898258144,-2.5569957035253e-06,-4.28147217275724e-05
-0.00164887914948935,0.00623384751283214,-1.55814690481006e-06,-4.40850482097217e-05
-0.00164674530307921,0.00623290575938855,-1.80317391486481e-07,-4.56996327756419e-05
-0.00164587507521362,0.00623376406632448,1.31410614229799e-06,-4.33072324101932e-05
-0.0016444922473724,0.00624184645663777,2.86039994301048e-06,-3.66471046752611e-05
-0.00164241800561059,0.00624997653066972,3.82879047960926e-06,-2.95550780652317e-05
-0.00164333591719484,0.00625357665142874,2.86651721285065e-06,-2.47949569751624e-05
-0.00164778242396011,0.00625733174427341,-6.10541800835221e-07,-2.11553170859846e-05
-0.00165147791215646,0.00626338757654354,-5.05214953012213e-06,-1.63857478449264e-05
-0.00165332565625463,0.00626943148788401,-7.9211618019554e-06,-1.04370271810175e-05
-0.00165468464223651,0.0062753323480685,-8.22338898322457e-06,-3.7768931936256e-06
-0.00165344486555128,0.00628480948715266,-6.93655189529038e-06,5.5695454620761e-06
-0.00165042887034588,0.00630124844916156,-4.93646182418527e-06,2.02006523117795e-05
-0.00164742479607015,0.00631836690416139,-1.93762564236864e-06,3.87040621521778e-05
-0.00164424190784943,0.00633473434059229,1.8481429674636e-06,5.52522752283309e-05
-0.00164134512194068,0.00634541549357268,4.48205040491011e-06,6.45804779056133e-05
-0.00164083252196506,0.00634650029817225,4.32159652544939e-06,6.62377542204197e-05
-0.00164290676372688,0.00634381808899749,2.62268377328766e-06,6.37333419265892e-05
-0.00164289484279721,0.00634074248914376,2.36689324700167e-06,6.07238803394973e-05
-0.00164138088472968,0.00633904971713124,4.46405427066026e-06,5.84726809500842e-05
-0.00163823375929795,0.00633624829865982,6.72421011746291e-06,5.60567159359641e-05
-0.00163759002909601,0.00633189715933187,7.04418181478375e-06,5.21845593222594e-05
-0.00163985500573248,0.00632656850377133,6.12269601111341e-06,4.66636959098196e-05
-0.00163878212206257,0.00632017888547056,6.12375290021197e-06,4.00849878322524e-05
-0.00163688669424574,0.0063117388672673,7.84245588825429e-06,3.24602442804358e-05
-0.00163455019203128,0.00630235709562046,1.0374783209239e-05,2.32366136109794e-05
-0.00163269052700344,0.00629217662168602,1.2719987681382e-05,1.2984179420037e-05
-0.00163047323408563,0.00628234185471188,1.43039032318986e-05,3.73401066373046e-06
-0.00163009176433633,0.00627507008761585,1.43838600569437e-05,-3.37437571963498e-06
-0.00163266668514411,0.00626810826469113,1.24519134818552e-05,-9.61453272377639e-06
-0.00163557539198252,0.00626086033945443,9.31568292073911e-06,-1.64365298937667e-05
-0.00163800726163431,0.00625495947926995,6.59634193422612e-06,-2.26980067082757e-05
-0.00163978348015448,0.00625031031670036,4.90152257803368e-06,-2.59442555854665e-05
-0.00164134512194068,0.00624972619114674,3.34799044466148e-06,-2.58478293047903e-05
-0.00164366970322548,0.00625144280501859,9.64186867717027e-07,-2.43251693725355e-05
-0.00164722214026583,0.00625293292122679,-2.32183852527842e-06,-2.24077456548506e-05
-0.00165011892617458,0.00625450648394266,-6.05800184101991e-06,-1.92183561922467e-05
-0.00165421972597955,0.00625853575816964,-9.50770824576466e-06,-1.45071994533858e-05
-0.00165612707472605,0.00626386441373017,-1.14104416285485e-05,-1.01490359987694e-05
-0.00165511379570447,0.00626382865094117,-1.08382884755516e-05,-8.07193284917322e-06
-0.00165296802836466,0.00626300610679424,-8.78275558245e-06,-8.11975921283324e-06
-0.00165219316793639,0.00626175440917935,-7.66641775634847e-06,-8.95497430434422e-06
-0.00165296802836466,0.00626084841852477,-8.57310430340851e-06,-9.83629706559598e-06
-0.00165414820040156,0.00625875033490362,-1.00267234834072e-05,-1.04118162130982e-05
-0.00165416012133122,0.00625808276284234,-1.02375546631124e-05,-9.83253057781502e-06
-0.00165381441437092,0.00626060999993145,-9.40769939052953e-06,-7.45894267780485e-06
-0.00165297994929433,0.00626335181375455,-8.86439174618165e-06,-3.9911230027629e-06
-0.00165268192605268,0.00626508034855606,-9.05941785188634e-06,-8.4586466673802e-07
-0.0016536117585666,0.00626672543684992,-9.65528278442968e-06,1.28213162843035e-06
-0.00165469656316617,0.0062669042507949,-1.05341815429865e-05,2.46186982213865e-06
-0.00165458927479918,0.00626679696242791,-1.12095502158286e-05,2.61955371413936e-06
-0.00165377865158192,0.00626555718574269,-1.01709945124216e-05,1.60428364571912e-06
-0.00165058384243154,0.00626130141385206,-6.72397306176859e-06,-7.28618205963711e-09
-0.00164630422868158,0.00626060999993145,-2.94598020509147e-06,-1.08642763221741e-06
-0.00164477834968438,0.00626153983244537,-1.68997236178674e-06,-1.0446089948384e-06
-0.00164636383332991,0.00625950135347255,-2.67098984744686e-06,-2.44647084402837e-07
-0.00164569626126863,0.00625975169299553,-2.5934858033924e-06,5.33077958548479e-07
-0.0016422749544546,0.00625999011158884,5.47076721674728e-07,4.53932723024857e-07
-0.00163794765698598,0.00625864304653663,5.27498920266276e-06,-1.28908284754436e-06
-0.00163378725253268,0.00625264681891482,9.16449532989211e-06,-4.84506838656277e-06
-0.00163135538288089,0.00624768771217392,1.13587686987689e-05,-9.03400648238293e-06
-0.0016309023875536,0.00624642409362937,1.16510657612644e-05,-1.21459161697484e-05
-0.00163344154557237,0.00624387301468092,9.35615237412051e-06,-1.37600869626551e-05
-0.00163762579188501,0.00624028481485157,4.91120587712477e-06,-1.5023972520251e-05
-0.00164141664751867,0.00623960532186063,9.81133715690688e-07,-1.65861164528539e-05
-0.00164217958701727,0.00624055899623388,-1.50126047228875e-07,-1.69751795151178e-05
-0.00164202461493162,0.00624151267060713,6.22973546851962e-07,-1.40238368182705e-05
-0.0016411663079957,0.00624737776800261,9.37977189481775e-07,-7.69177838555294e-06
-0.00164128551729235,0.0062558773908542,6.52964232969236e-07,-5.21557163906144e-07
-0.00164030800105977,0.00626060999993145,1.61875997374324e-06,4.75019071782209e-06
-0.00163812647093096,0.00626304186958324,4.05303136600521e-06,7.13501677299355e-06
-0.00163646946170744,0.00626260079518561,5.48603854836516e-06,6.94695675157746e-06
-0.00163772115932233,0.00626097954875109,3.95215255226153e-06,4.91280375195943e-06
-0.00164084444289472,0.00625910796279359,6.04065901734062e-07,2.71794821269198e-06
-0.00164406309390444,0.00626052655342379,-1.64999397394052e-06,3.28647543655218e-06
-0.00164270410792256,0.00626490153461108,-1.07780101480368e-06,8.66479050649447e-06
-0.00163931856389752,0.0062744978829919,1.84064403401309e-06,1.74418291164543e-05
-0.0016365529082151,0.00628395118021674,5.34417214490109e-06,2.54047763570163e-05
-0.00163445482459395,0.0062874678544681,7.73655394700495e-06,2.90959945063664e-05
-0.00163294086652642,0.00628643073358719,8.4002901165142e-06,2.81904879751671e-05
-0.00163339386185371,0.00628392733835741,7.90131478996019e-06,2.47651458230495e-05
-0.00163530121060021,0.00628269948260185,6.8611841856971e-06,2.15281160388545e-05
-0.00163705358726106,0.0062813285756903,5.0214811020007e-06,2.07255819963545e-05
-0.00163911590809321,0.00628366507790477,2.09733386160899e-06,2.29220277904852e-05
-0.0016429663683752,0.00628837384512269,-1.01365685962962e-06,2.56507721749923e-05
-0.00164538631709732,0.00628829039861503,-3.23504910726212e-06,2.42711524415606e-05
-0.00164721021933616,0.00627926625485815,-5.23212804416359e-06,1.57287743081368e-05
-0.00165052423778321,0.00626627244152262,-8.48617930308251e-06,1.78395570426762e-06
-0.00165418396319055,0.0062548045071843,-1.21525377493876e-05,-1.1900396856844e-05
-0.00165505419105614,0.00624715127033897,-1.28892118792075e-05,-2.00818767743851e-05
-0.00165195474934308,0.0062456492332011,-8.97696093656051e-06,-2.17734807168651e-05
-0.00164517174036334,0.00624841488888352,-3.0339093339551e-06,-2.05402112579578e-05
-0.00164136896380001,0.00624976195393574,9.28507707105901e-07,-2.10956444324306e-05
-0.00164082060103539,0.00624578036342742,2.09546723837586e-06,-2.50790163499937e-05
-0.00164084444289472,0.00624201334965309,2.81629075511206e-06,-3.02969748785123e-05
-0.00163768539653333,0.00623897351258835,4.65379303339506e-06,-3.44798662286259e-05
-0.00163629064776246,0.00623648203828824,6.38926618962261e-06,-3.85979793205006e-05
-0.00163815031279029,0.00623073615018941,6.15092842527849e-06,-4.46704079107681e-05
-0.00163975963829515,0.0062258843318155,4.07426785024257e-06,-5.11287580981985e-05
-0.00164024839641144,0.00622502602487958,2.21061121291637e-06,-5.33851816333377e-05
-0.00164170274983065,0.00622943676885586,2.47661008970348e-06,-4.95939877979012e-05
-0.00163990268945114,0.00623774565683279,5.04065312674202e-06,-4.29419070029253e-05
-0.00163556347105285,0.00624443329837521,8.24717428353809e-06,-3.6896982155015e-05
-0.00163359651765803,0.00625221766544686,9.91535454635317e-06,-3.10275791767827e-05
-0.00163637409427012,0.00626012124181516,9.06897521400905e-06,-2.35219150467743e-05
-0.00163848409882093,0.00626978911577398,6.53343352128291e-06,-1.49810971875283e-05
-0.00164060602430141,0.00628000535249742,3.72617322372123e-06,-6.64465422579681e-06
-0.00164392004274845,0.00629005469620554,1.1221019509622e-06,2.87546954458786e-06
-0.00164744863792948,0.00630301274675207,-1.77295483933865e-06,1.51823167898111e-05
-0.00165085802381385,0.00631709136468717,-5.29999820879829e-06,2.76529201447866e-05
-0.00165445814457286,0.00632638968982635,-9.04910604793125e-06,3.55498045493672e-05
-0.00165771255837158,0.00632909574086045,-1.21572510288658e-05,3.83058092566403e-05
-0.00166015634895303,0.00633181371282421,-1.36942989231148e-05,3.97890108616849e-05
-0.00165916691179078,0.00633561648938754,-1.30428948052115e-05,4.21834018448749e-05
-0.00165648470261602,0.00633794107067234,-1.05635001501545e-05,4.37936510026278e-05
-0.00165447006550253,0.00633823909391398,-7.73930669327725e-06,4.38301882468863e-05
-0.00165249119117804,0.0063402775728868,-5.98841684703165e-06,4.49332190408117e-05
-0.0016521574051474,0.00634536780985402,-5.33295186919227e-06,4.86009093332091e-05
-0.00165166864703111,0.00634868182830106,-4.74582872189758e-06,5.17210858713568e-05
-0.00165039310755689,0.00634778775857614,-3.66489557671396e-06,5.07846718900359e-05
-0.00164982090293294,0.00634560622844733,-2.54496733833391e-06,4.70161669232647e-05
-0.00164951095876163,0.00634262599603093,-2.02797910879776e-06,4.40587959778459e-05
-0.00164921293551999,0.00634179153095433,-2.25230466347193e-06,4.24096764496762e-05
-0.00165054807964254,0.00633876361481926,-2.92172827704129e-06,3.95594172878892e-05
-0.00165077457730619,0.00633447208013964,-3.33313569316667e-06,3.44660597626001e-05
-0.00165015468896357,0.00632889308505613,-2.39440728472351e-06,2.83072889565164e-05
-0.00164725790305483,0.00632146634587445,4.72909842523156e-07,2.11041719442577e-05
-0.00164315710324985,0.00631160773704098,4.27200491014508e-06,1.11095501112483e-05
-0.00164093981033205,0.00629942454692272,7.17533228377677e-06,-1.67457141655573e-06
-0.00163928280110853,0.00628689564984415,8.67778911146087e-06,-1.40998033357246e-05
-0.00163762579188501,0.00627766885028296,1.00993612598771e-05,-2.3294573041076e-05
-0.00163565883849018,0.00627117194361519,1.23542873345389e-05,-2.97595554375096e-05
-0.00163397798740733,0.00626475848345509,1.4081949413015e-05,-3.59560078992722e-05
-0.00163508663386623,0.006258237734928,1.29945758853226e-05,-4.31460519521357e-05
-0.00163939008947552,0.00624935664232711,8.69360738928107e-06,-5.06904110464467e-05
-0.00164475450782505,0.006243014707745,3.17849016852113e-06,-5.74690775430316e-05
-0.0016494871169023,0.00623739994987249,-1.32648413083447e-06,-6.28237999350546e-05
-0.00165237198188138,0.00623340643843451,-4.13326054633151e-06,-6.63890369960392e-05
-0.00165371904693359,0.006231570615266,-5.61479481080461e-06,-6.76524738840984e-05
-0.00165382633530058,0.00623320378263019,-6.00341233387472e-06,-6.56930609144765e-05
-0.00165369520507426,0.00623924769397066,-5.34055538733955e-06,-5.94880592454629e-05
-0.00165228853537372,0.00624880827956249,-4.10726257164055e-06,-4.9060217362345e-05
-0.00165096531218084,0.00626093186503243,-3.04805581327393e-06,-3.63136728872716e-05
-0.00165027389826023,0.00627290047841671,-2.25717998349659e-06,-2.39940360593751e-05
-0.00164918909366066,0.00628290213840616,-9.66934573120271e-07,-1.35431863878801e-05
-0.00164653072634522,0.0062908653194228,1.41103630098395e-06,-4.32700283215332e-06
-0.00164400348925611,0.00629996098875767,4.19926210955225e-06,5.15111495759262e-06
-0.00164188156377563,0.00631003417432512,5.71254401901126e-06,1.57893025161508e-05
-0.00164358625671782,0.00632094182496916,4.68265940538588e-06,2.72452996816956e-05
-0.00164662609378255,0.00632931031759443,1.36928617551231e-06,3.77645191338386e-05
-0.00165046463313488,0.00633740462883738,-2.68241134284786e-06,4.48272502543853e-05
-0.00165357599577761,0.00633842982878863,-5.82215094404345e-06,4.72338900305041e-05
-0.00165537605615712,0.00633583106612152,-7.25600871975394e-06,4.68162251004953e-05
-0.00165489921897049,0.00633690394979143,-7.15590437919153e-06,4.69283344155706e-05
-0.00165396938645657,0.00633738078697805,-6.16293070827099e-06,4.87316662869411e-05
-0.00165257463768569,0.00633683242421343,-4.88366737799092e-06,4.9951843940604e-05
-0.00165145407029713,0.00633462705222529,-3.76775955064077e-06,4.78898785243262e-05
-0.00165141830750813,0.00632889308505613,-3.26870517615461e-06,4.26693044758712e-05
-0.0016509772331105,0.0063212040854218,-3.79262052902373e-06,3.66118869688155e-05
-0.00165296802836466,0.00631492175548802,-5.20348148524758e-06,3.11591741736035e-05
-0.00165433893527621,0.00630922355110786,-6.52433786585447e-06,2.56011357160407e-05
-0.00165416012133122,0.00630070008639694,-6.62853136679199e-06,1.8692822484751e-05
-0.00165286073999767,0.00629203357053003,-5.38820662249278e-06,1.05376284880263e-05
-0.00165121565170381,0.00628317631978847,-3.72093576652654e-06,2.58036861834899e-06
-0.00164991627037026,0.0062759879992001,-2.30292728127468e-06,-3.82540786486849e-06
-0.00164842615416206,0.00627026595296061,-7.92754434333133e-07,-8.60055091128928e-06
-0.00164569626126863,0.00626577176247667,1.26343622324906e-06,-1.27349317966428e-05
-0.00164430151249775,0.00626022853018215,3.45550275545013e-06,-1.68451890205159e-05
-0.00164204845679095,0.0062566760931418,5.33094190858482e-06,-2.0070350135333e-05
-0.00163933048482719,0.0062555316838939,7.7096567355346e-06,-2.09315937948823e-05
-0.00163569460127918,0.00625530518623025,1.18496262741205e-05,-1.94716973681164e-05
-0.00162993679225068,0.00625692643266478,1.72174836179904e-05,-1.78947189431928e-05
-0.0016255260482744,0.00625573433969821,2.14588244123481e-05,-1.84747946601517e-05
-0.00162428627158918,0.00625236071660284,2.31563212512003e-05,-2.1102667868939e-05
-0.00162369022510589,0.00624933280046778,2.33816113178774e-05,-2.34261414195862e-05
-0.00162305841583362,0.0062490466981558,2.35702666809175e-05,-2.32671011139196e-05
-0.00162432203437817,0.00625186003755689,2.29638065420456e-05,-2.04834922256799e-05
-0.00162752876445822,0.00625453032580199,1.95906009958678e-05,-1.66352252716637e-05
-0.00163327465255705,0.00625767745123371,1.31324882122355e-05,-1.33382712272084e-05
-0.00164159546146366,0.0062597278511362,5.18601997734514e-06,-1.09980800364832e-05
-0.00165016660989324,0.00626189746033534,-3.03943669676028e-06,-8.84841393178965e-06
-0.00165765295372325,0.00626335181375455,-1.13939527357764e-05,-6.14596402849641e-06
-0.00166552076730256,0.00626671351592025,-1.88837666751334e-05,-3.34478324997262e-06
-0.00166951427874054,0.00626792945074615,-2.31435484440463e-05,-1.87949436898309e-06
-0.00166949043688121,0.00626618899501496,-2.30603055640737e-05,-2.71035350631252e-06
-0.00166705856722942,0.00626438893463546,-2.05721509448097e-05,-5.43864943283233e-06
-0.00166414986039101,0.00625983513950319,-1.83886591990015e-05,-8.97922457091076e-06
-0.0016631127395101,0.0062563303861815,-1.68609393525351e-05,-1.25214541692714e-05
-0.00166076431636598,0.00625411309326369,-1.4697334392531e-05,-1.54897468184604e-05
-0.00165783176766823,0.00625153817245592,-1.20013068538586e-05,-1.73516241510851e-05
-0.00165622244216337,0.00625002421438838,-1.04583878883208e-05,-1.83207020698781e-05
-0.00165572176311742,0.00625036992134869,-1.0477520680386e-05,-1.96202586959957e-05
-0.00165648470261602,0.00624725855870596,-1.02794380831747e-05,-2.17130629621401e-05
-0.00165374288879293,0.00624666251222268,-8.58997562892785e-06,-2.24151500204431e-05
-0.00165144214936746,0.00625087060039464,-6.45365254196645e-06,-1.84287927286018e-05
-0.0016505957633612,0.00626076497201711,-5.17800900965588e-06,-9.51465691867169e-06
-0.00164924869830899,0.00626956261811033,-3.98446902488983e-06,9.39230712715935e-08
-0.00164623270310358,0.00627536811085749,-1.38841880216318e-06,5.70312689117654e-06
-0.00164241800561059,0.00627791918980594,2.08000240279396e-06,7.03833140704567e-06
-0.00164054641965308,0.00627833642234423,4.50929497683519e-06,7.94327717689546e-06
-0.00163917551274154,0.00628213919890757,5.54612089853912e-06,1.15609556138951e-05
-0.001637733080252,0.00628863610557533,6.62659287840637e-06,1.72298505984961e-05
-0.00163614759660647,0.00629361905417556,8.1110897121498e-06,2.22605255695807e-05
-0.00163605222916914,0.00629684962611494,8.28165788599732e-06,2.50983960016522e-05
-0.00163863907090658,0.00629787482606619,6.07406823061492e-06,2.56524541118308e-05
-0.00164058218244208,0.00629618205405367,3.08348846278356e-06,2.3727323570447e-05
-0.00164238224282159,0.00629189051937404,1.51981073758092e-06,1.90457075421543e-05
-0.00164284715907855,0.00628600158011923,1.44646421804471e-06,1.28931849082226e-05
-0.00164257297769624,0.00628236569657121,1.60890877062079e-06,8.23189412443058e-06
-0.00164128551729235,0.00628088750129268,2.00999799496702e-06,7.41487018698405e-06
-0.00164022455455211,0.00628492869644932,3.65770811612681e-06,1.03391221846376e-05
-0.00163801918256397,0.00629012622178353,6.06058811740242e-06,1.49967198103276e-05
-0.00163670788030075,0.00629398860299519,7.0960684621003e-06,1.89284747831159e-05
-0.00163741121515102,0.00629566945407805,5.89487772613386e-06,1.99536208189663e-05
-0.00163968811271716,0.00629293956118462,4.14345606395056e-06,1.70071710797468e-05
-0.00164042721035643,0.00628846921256001,3.54202705059342e-06,1.14911503753809e-05
-0.00164054641965308,0.00628370084069376,3.24772008618782e-06,6.86233946583664e-06
-0.00164219150794694,0.00628240145936021,1.16034788033978e-06,5.39349366999398e-06
-0.00164687643330553,0.00628397502207607,-2.92544648703287e-06,5.74064698584875e-06
-0.00165100107496983,0.00628339089652246,-6.79101411579338e-06,4.97479048392751e-06
-0.00165199051213208,0.00628085173850368,-8.30150772735177e-06,2.46103733054396e-06
-0.00165125141449281,0.00627912320370216,-7.39174629889321e-06,4.1754092954106e-08
-0.00164970169363628,0.00627845563164089,-5.40232459341442e-06,-1.27168886422174e-06
-0.00164743671699981,0.00627784766422794,-3.29468448268536e-06,-2.50982880539483e-06
-0.00164551744732365,0.0062757138178178,-1.00152900556958e-06,-4.12414628799156e-06
-0.00164232263817326,0.00627652444103506,1.86270012456074e-06,-4.32118686269534e-06
-0.00163933048482719,0.00628044642689505,5.17627304532752e-06,-1.32784058891147e-06
-0.00163676748494908,0.00628589429175224,8.25329926096596e-06,4.13702016694473e-06
-0.00163472900597626,0.00629119910545344,1.03602385873075e-05,9.90544225145801e-06
-0.00163333425720538,0.00629745759352789,1.10661247924086e-05,1.4521337230922e-05
-0.00163542041989687,0.00630058087710028,1.01644756137454e-05,1.6973196564519e-05
-0.00163799534070464,0.00629836358418248,7.75044251978191e-06,1.56752113739996e-05
-0.00164059410337175,0.00629295148211428,4.76460682086057e-06,9.75330226685389e-06
-0.00164271602885223,0.0062858704498929,2.9892413662103e-06,7.12276132677854e-07
-0.00164253721490724,0.00627557076666181,3.57960275506622e-06,-8.97862950538201e-06
-0.00164103517776937,0.00626547373923503,5.55161015547757e-06,-1.84653892777327e-05
-0.00163974771736549,0.00625780858146003,6.64467188188073e-06,-2.79137586935582e-05
-0.00164027223827077,0.00625020302833337,5.98907459088286e-06,-3.59194214219027e-05
-0.00164242992654025,0.00624591149365374,5.00717867603297e-06,-3.98245033914431e-05
-0.00164200077307229,0.00624715127033897,5.18386664929234e-06,-3.87829679852915e-05
-0.001641476252167,0.00625236071660284,5.97350065308154e-06,-3.45013123363344e-05
-0.00164135704287035,0.0062589291488486,5.8302145147222e-06,-2.87263047829691e-05
-0.00164392004274845,0.00626455582765077,4.4075589336311e-06,-2.22643628912039e-05
-0.0016460538891586,0.00627026595296061,2.40217985269086e-06,-1.70580497476634e-05
-0.00164786587046777,0.00627205409241045,-2.01063097788177e-07,-1.64233358709558e-05
-0.00165297994929433,0.00626703538102122,-4.01796013290513e-06,-2.11200432520885e-05
-0.00165728340490361,0.00626168288360136,-8.36034705206156e-06,-2.68671279868873e-05
-0.00166012058616403,0.00625993050694051,-1.11591344797566e-05,-2.82477622928387e-05
-0.00166083584194397,0.00626481808810342,-1.1494887084693e-05,-2.4550297593669e-05
-0.00166031132103868,0.00626974143205532,-1.09358187423944e-05,-1.97175654204001e-05
-0.00166113386518561,0.00627237595751142,-1.14440941804786e-05,-1.67548906385817e-05
-0.00166312466043977,0.00627484358995221,-1.29271690100865e-05,-1.42395756469967e-05
-0.00166385183714937,0.0062814001012683,-1.39106543636189e-05,-8.71205035189887e-06
-0.00166381607436037,0.00629167594264006,-1.38405724800857e-05,1.30277181786511e-06
-0.00166423330689867,0.00630378760718033,-1.3373035347573e-05,1.44930304478837e-05
-0.00166336307903308,0.00631810464370874,-1.27294211056295e-05,2.84010942296202e-05
-0.00166176567445789,0.00633134879656725,-1.12114458816265e-05,4.03860605777658e-05
-0.00165956030246975,0.00633809604275799,-8.56828929269154e-06,4.78312537468455e-05
-0.001656735042139,0.0063387874566786,-5.64956745082016e-06,4.93403362488597e-05
-0.00165450582829152,0.00633647479632347,-3.13616721110694e-06,4.61318183761366e-05
-0.0016517044098201,0.00633189715933187,-4.76320512188405e-07,4.104933357779e-05
-0.00164794931697543,0.00632562675032775,3.18623636082305e-06,3.56116909494379e-05
-0.00164445648458341,0.00631853379717671,7.49206214467506e-06,2.8966739884488e-05
-0.00164058218244208,0.00631055869523041,1.09036734285702e-05,2.03544597325165e-05
-0.00163965234992816,0.00630197562587116,1.20099311049722e-05,1.13595048296483e-05
-0.00164127359636269,0.00629359521231623,1.04343592176376e-05,4.29306479696801e-06
-0.00164486179619204,0.00628860034278633,6.95933778735956e-06,-7.92120943048635e-07
-0.00164877186112236,0.00628470219878567,3.34999596126394e-06,-5.34455068158545e-06
-0.00165026197733056,0.0062806013989807,1.52511215205605e-06,-8.68935299026856e-06
-0.00164985666572193,0.00628125705011231,1.90716533712075e-06,-7.75635055513302e-06
-0.00164932022388698,0.0062874678544681,2.71201784729266e-06,-1.52361416379492e-06
-0.00165072689358752,0.00629522837968042,1.81270701911976e-06,6.5402351906059e-06
-0.00165214548421773,0.00630117692358356,-6.93965012049434e-07,1.23941897371071e-05
-0.00165458927479918,0.00630413331414064,-2.7751871417641e-06,1.60492415824067e-05
-0.00165622244216337,0.00630785264419631,-3.36567163150835e-06,1.9844270177566e-05
-0.00165514955849347,0.00631134547658834,-3.62984133000573e-06,2.34235030278184e-05
-0.00165653238633468,0.00631114282078402,-4.72377726614945e-06,2.37074152186408e-05
-0.00165808210719121,0.00630714930934604,-5.65111675731321e-06,1.98205887823528e-05
-0.00165654430726435,0.00630208291423815,-4.61699041389138e-06,1.48512630401583e-05
-0.00165333757718429,0.00629802979815184,-1.70307590948905e-06,1.1691854727701e-05
-0.00165106067961816,0.00629644431450631,1.24051764358169e-06,9.70062127243429e-06
-0.00164898643785634,0.00629365481696456,3.00245996308161e-06,6.98771426518534e-06
-0.00164746055885914,0.00628945864972226,3.93130542710009e-06,3.90047892880691e-06
-0.00164769897745246,0.0062881592683887,4.56187204212736e-06,2.1634599176285e-06
-0.00164746055885914,0.00628740824981977,4.67869849477182e-06,1.70428647791416e-06
-0.00164725790305483,0.0062859062126819,3.97543776378729e-06,3.09031327524077e-07
-0.00164917717273099,0.00628130473383097,2.57504491622006e-06,-3.92210396597062e-06
-0.00165182361911676,0.00627392567836795,6.50509030286341e-07,-1.11304349340642e-05
-0.00165293226557566,0.00626440085556512,-1.57442972485093e-06,-2.04120717034839e-05
-0.00165472040502551,0.00625495947926995,-3.36996286025767e-06,-3.07512840119244e-05
-0.00165603170728872,0.00624340809842396,-4.057403046001e-06,-4.1097703434279e-05
-0.00165613899565571,0.00623408593142545,-4.08130043963372e-06,-5.01023844086949e-05
-0.00165554294917243,0.00622954405722285,-4.34857066158791e-06,-5.5963727551079e-05
-0.00165582905148441,0.00622838772704528,-4.34967541302863e-06,-5.68280370997951e-05
-0.00165416012133122,0.00623210705710095,-2.31567970702832e-06,-5.21273034460266e-05
-0.00164947519597263,0.00624095238691284,2.31337681599772e-06,-4.35947708545325e-05
-0.00164346704742116,0.00625207461429087,7.90721252334733e-06,-3.40917923088374e-05
-0.00163847217789126,0.00625975169299553,1.26591878763921e-05,-2.53792095691356e-05
-0.00163580188964617,0.00626666583220159,1.6151785976403e-05,-1.79618663720334e-05
-0.0016335369130097,0.00627328194816601,1.8226417289739e-05,-1.25825735825359e-05
-0.00163303623396374,0.00627709664565901,1.80044972545955e-05,-9.65516895821745e-06
-0.00163581381057583,0.00627868212930454,1.54008376982293e-05,-6.91241861204504e-06
-0.00163981924294348,0.0062858704498929,1.22445592338674e-05,-4.00702679736333e-07
-0.00164122591264402,0.00629776753769919,1.01772469826705e-05,1.0505415290629e-05
-0.00164253721490724,0.00630869903020257,8.34397083175199e-06,2.11886020995353e-05
-0.00164679298679787,0.00631423034156742,4.93901126161942e-06,2.69705682317657e-05
-0.00165079841916552,0.00631717481119482,3.97094648795115e-07,2.85444886269874e-05
-0.00165470848409584,0.00631804503906042,-2.88915493296246e-06,2.99421194377413e-05
-0.00165470848409584,0.00632206239235773,-3.85948091181531e-06,3.26221967366668e-05
-0.00165487537711116,0.00632494725733681,-3.9905802485483e-06,3.45517769171775e-05
-0.00165735493048161,0.00632364787600326,-5.07663560408104e-06,3.43349762269946e-05
-0.00165805826533188,0.00632362403414393,-7.43859806609102e-06,3.28596755604224e-05
-0.00166167030702056,0.00632306375044964,-1.06774945321065e-05,3.05184493659118e-05
-0.00166589031612219,0.00631748475536613,-1.45869739447103e-05,2.58124916746095e-05
-0.00166971693454486,0.00630996264874712,-1.84574810424216e-05,1.78643303130814e-05
-0.0016715050739947,0.00630191602122283,-2.06096706731403e-05,8.15674490669887e-06
-0.00167059908334011,0.00629321374256693,-1.9745952051061e-05,-1.38758119071009e-06
-0.00166715393466675,0.00628429688717704,-1.64302984268121e-05,-1.02657450799019e-05
-0.00166399488830536,0.00627627410151208,-1.25667094677033e-05,-1.81630204067469e-05
-0.00165992985128938,0.00627328194816601,-9.5558387694811e-06,-2.3566895615813e-05
-0.00165776024209024,0.00627223290635543,-7.30701914694053e-06,-2.52673205666578e-05
-0.0016559005770624,0.00627197064590279,-4.91815944848168e-06,-2.42465581249633e-05
-0.00165256271675603,0.00627572573874746,-2.02806797609514e-06,-2.24621850858224e-05
-0.00164946327504297,0.0062794212269438,6.4841247757913e-07,-2.01812380134215e-05
-0.00164840231230273,0.00628317631978847,2.20666506530245e-06,-1.59534585820295e-05
-0.00164725790305483,0.00629038848223617,2.77542350664598e-06,-9.34195061643792e-06
-0.00164697180074285,0.00629810132372983,3.37245082728871e-06,-2.65097757409283e-06
-0.00164533863337866,0.00630232133283146,4.58293112330618e-06,6.55912129222282e-07
-0.00164382467531113,0.00630097426777925,6.11640451457314e-06,-9.06411316861747e-07
-0.00164195308935363,0.00629669465402929,7.7145682450353e-06,-5.58962105258457e-06
-0.0016406775498794,0.00629227198912334,9.3372388390292e-06,-1.03667560837281e-05
-0.00163946161505351,0.00629047192874383,1.00667079072875e-05,-1.37431485161066e-05
-0.00164070139173874,0.00628833808233369,8.37584526683835e-06,-1.59606309362141e-05
-0.00164521942408201,0.00628657378474318,4.56550343427903e-06,-1.67196234417092e-05
-0.00164802084255343,0.00629117526359411,1.4603566082148e-06,-1.43984424543112e-05
-0.00164728174491416,0.00629758872375421,1.04881350574147e-06,-8.455982117573e-06
-0.0016479612379051,0.00630397834205498,1.68932122878016e-06,-9.92636903638192e-07
-0.00164828310300607,0.00631152429053332,7.41376707267083e-07,5.9003662119386e-06
-0.00164943943318364,0.0063205126715012,-1.07953664939277e-06,1.31565070768524e-05
-0.00164957056340996,0.00632926263387576,-7.5206828640957e-07,2.2657356134345e-05
-0.00164700756353185,0.00633884706132692,1.93670889432752e-06,3.27856378623765e-05
-0.0016448737171217,0.00634667911211724,3.40183301415098e-06,3.90877566656037e-05
-0.00164715061468784,0.0063474897353345,1.14753782405237e-06,3.97999762371724e-05
-0.00165151367494545,0.0063447836843004,-2.97129736067466e-06,3.78906904533535e-05
-0.00165387401901925,0.00634415187502813,-5.62951212517911e-06,3.6595384772736e-05
-0.00165423164690922,0.00634348430296685,-5.99071216463622e-06,3.55911349488267e-05
-0.00165312300045031,0.0063406590426361,-5.24623746141319e-06,3.31808522533454e-05
-0.00165227661444405,0.00633749999627471,-4.04873733745453e-06,2.98139528921519e-05
-0.00165051231685354,0.00633479394524061,-2.35021225771166e-06,2.70947326247819e-05
-0.00164850960066972,0.00633225478722184,-6.83261140168115e-07,2.48777825644023e-05
-0.00164760361001513,0.00632934608038342,2.09500529701461e-07,2.16933869693998e-05
-0.00164755592629647,0.00632461347130617,4.60242069990981e-07,1.7070095453472e-05
-0.00164760361001513,0.0063182596157944,5.09634898800395e-07,1.14048102990899e-05
-0.0016475797681558,0.00631165542075964,1.10794049623626e-07,4.45255958430533e-06
-0.00164867649368504,0.0063029650630334,-9.67338746379403e-07,-3.95543593119404e-06
-0.00165007124245591,0.00629447736111148,-2.00092332009042e-06,-1.23547393735866e-05
-0.00165046463313488,0.0062870506219298,-2.24175507801671e-06,-1.88257838249448e-05
-0.00164957056340996,0.00628302134770282,-2.00873267046563e-06,-2.32601641044252e-05
-0.00164942751225397,0.00627955235717013,-1.64286248599714e-06,-2.67143572585996e-05
-0.00164871225647403,0.00627570189688813,-2.36238434512208e-07,-2.93234626764773e-05
-0.00164507637292602,0.00627398528301628,3.11116870705354e-06,-3.10131345654266e-05
-0.00164011726618512,0.00627179183195781,7.4120262129664e-06,-3.34830398992651e-05
-0.00163775692211133,0.006265831367125,1.07370821153222e-05,-3.85832311713338e-05
-0.00163581381057583,0.00625885762327061,1.26223258212387e-05,-4.46340885321775e-05
-0.00163428793157863,0.00625689066987578,1.4062578850489e-05,-4.72179285655864e-05
-0.00163265476421444,0.00625872649304429,1.55508595646002e-05,-4.44781544372066e-05
-0.00163176069448952,0.00626326836724689,1.67126069262068e-05,-3.93199127899521e-05
-0.00163158188054454,0.00626698769730256,1.74277718737757e-05,-3.5339775684631e-05
-0.00163131962009189,0.00626935996230602,1.73632684487993e-05,-3.2659916868784e-05
-0.00163390646182933,0.00627238787844109,1.46053677226507e-05,-2.90539000995775e-05
-0.0016418219591273,0.00627727545960399,7.20825132544775e-06,-2.33593978444505e-05
-0.00165252695396703,0.00628457106855935,-3.20772009133465e-06,-1.61780279044857e-05
-0.0016608239210143,0.00629142560311708,-1.15993812923043e-05,-8.45113385362152e-06
-0.00166351805111873,0.00629847087254947,-1.45816788099795e-05,-8.63071382286925e-07
-0.00166308889765077,0.00630520619781054,-1.38128387380801e-05,6.13968766266211e-06
-0.00166317234415843,0.00631126203008068,-1.29561378674599e-05,1.28841735911773e-05
-0.00166224251164451,0.00631824769486473,-1.28009823995406e-05,2.02741876881124e-05
-0.001660513976843,0.00632548369917176,-1.14259619621653e-05,2.81341342949359e-05
-0.00165867815367449,0.00633143224307491,-8.34114453840557e-06,3.46135912441581e-05
-0.00165642509796769,0.00633473434059229,-5.95052601085807e-06,3.81811345104917e-05
-0.00165591249799207,0.00633499660104493,-6.38936729594269e-06,3.93518448459902e-05
-0.00165852318158884,0.00633481778709994,-8.67264423908818e-06,3.95325527684082e-05
-0.00166100273495929,0.00633425750340566,-1.00131333097992e-05,3.91521340785264e-05
-0.00165945301410276,0.00633181371282421,-8.98622375568866e-06,3.80464590272808e-05
-0.00165630588867103,0.0063307408291543,-6.36827421444885e-06,3.66986285164681e-05
-0.0016540647538939,0.00632903613621212,-3.45899672423508e-06,3.56016201080123e-05
-0.00165194282841342,0.00632615127123304,-8.03043965079619e-07,3.39118133894986e-05
-0.00164940367039464,0.00632243194117736,1.37591851127865e-06,3.01566297456025e-05
-0.00164762745187446,0.00631634034611823,2.53516503025388e-06,2.41403043490845e-05
-0.00164901027971567,0.00630805530000062,2.29359305101913e-06,1.71230141304804e-05
-0.00165008316338558,0.00630055703524095,1.18267566576254e-06,1.0320039351173e-05
-0.00165032158197889,0.00629491843550911,3.1221089633751e-07,4.11157431457164e-06
-0.00165073881451719,0.00628865994743466,3.32448299583834e-07,-1.56048961765383e-06
-0.00165016660989324,0.00628135241754963,1.11255440442713e-06,-6.91876827924054e-06
-0.00164891491227835,0.00627701319915135,2.30977236135878e-06,-1.22334902242562e-05
-0.00164749632164814,0.00627194680404346,3.67843582038819e-06,-1.72075336673556e-05
-0.00164638767518924,0.00626661814848293,4.77215345297014e-06,-2.08392459724231e-05
-0.00164623270310358,0.00626479424624409,5.03577903324589e-06,-2.27050215040757e-05
-0.00164703140539118,0.00626364983699619,4.56100020904996e-06,-2.39560846429366e-05
-0.00164693603795386,0.00626094378596209,4.20631283380885e-06,-2.61120187303934e-05
-0.0016467810658682,0.00625734366520307,4.47989745743461e-06,-2.91825719653056e-05
-0.00164676914493854,0.0062540058048967,4.73114687793801e-06,-3.18669259320804e-05
-0.00164752016350747,0.00625317133982011,3.97266116669081e-06,-3.32431509468581e-05
-0.00164922485644965,0.00625250376775883,2.10795683107036e-06,-3.32659958256871e-05
-0.00165137062378947,0.0062536243351474,-2.21189036339729e-07,-3.18906737332596e-05
-0.00165436277713554,0.00625588931178387,-2.55587603571199e-06,-2.88331286855829e-05
-0.0016559363398514,0.00626144446500805,-4.65509127972225e-06,-2.42284510237199e-05
-0.00165737877234094,0.00626634396710062,-6.05783764115143e-06,-1.86847570784659e-05
-0.00165810594905054,0.00627176799009847,-6.59172985845305e-06,-1.26721917684623e-05
-0.00165839205136252,0.00627828873862557,-7.03248389984881e-06,-6.44858880384239e-06
-0.0016597152745554,0.00628464259413735,-8.12237745763051e-06,-2.85498666761986e-07
-0.00166032324196835,0.00629068650547782,-9.08890135646635e-06,5.98574112011927e-06
-0.00165987024664105,0.00629762448654321,-8.50216983899495e-06,1.32767666594047e-05
-0.00165835628857352,0.00630705394190871,-6.68287994638541e-06,2.21126135929741e-05
-0.00165678272585766,0.0063159350345096,-5.62661265037348e-06,3.13138257227512e-05
-0.00165752182349693,0.00632379092715924,-5.99535124821633e-06,3.85781770871482e-05
-0.00165725956304428,0.00632708110374696,-5.94548947025557e-06,4.22335618716136e-05
-0.00165554294917243,0.00632716455025462,-4.14219312016216e-06,4.19376961698287e-05
-0.00165379057251159,0.00632395782017456,-2.35622081880552e-06,3.83559079726448e-05
-0.00165449390736186,0.00631878413669968,-3.14933440479325e-06,3.30732745892131e-05
-0.0016570807490993,0.0063144091555124,-5.86552513343946e-06,2.80460462960957e-05
-0.00165845165601085,0.00630978383480214,-7.07825535471839e-06,2.38305534938805e-05
-0.00165646086075669,0.00630590953266081,-4.82871523081599e-06,1.90273258378842e-05
-0.00165119180984448,0.00630067624453761,-3.37631131602106e-07,1.30243171299656e-05
-0.00164644727983757,0.00629596747731969,4.80874369280415e-06,8.49191067448826e-06
-0.00164062986616074,0.00629646815636564,1.11376682083467e-05,8.69195989388898e-06
-0.0016309023875536,0.00630114116079456,1.98695226407438e-05,1.21171942955326e-05
-0.00162078151826748,0.00630179681192617,3.02901794645147e-05,1.22937087139391e-05
-0.00161181697915894,0.00629364289603489,3.96538132293323e-05,4.14111926391205e-06
-0.00160595188176345,0.0062794212269438,4.50285271098234e-05,-1.099225401314e-05
-0.00160621414221609,0.00626353062769953,4.46957898127656e-05,-2.76018521667105e-05
-0.00161213884425991,0.00625029839577069,3.88509007609066e-05,-4.17577062143057e-05
-0.0016209841740718,0.00623942650791565,2.99172590901455e-05,-5.31938374171582e-05
-0.00162984142481336,0.00622942484792619,2.12568277405782e-05,-6.28975957174192e-05
-0.00163587341522416,0.00622412003422499,1.43210296916603e-05,-7.05296529362312e-05
-0.00164346704742116,0.00622071064834062,7.52175499256272e-06,-7.43511290033519e-05
-0.00165175209353877,0.00622222460640815,-1.14398580682932e-06,-7.28371439241143e-05
-0.00166112194425594,0.00622955597815251,-1.1001296834126e-05,-6.62464564322555e-05
-0.00166990766941951,0.00624113120085783,-1.93893441791897e-05,-5.67706150688118e-05
-0.00167485485523074,0.00625174082826023,-2.48441109920047e-05,-4.67043045873021e-05
-0.00167825232018544,0.00626115836269607,-2.80896469376749e-05,-3.62516692545364e-05
-0.00167980204104197,0.0062764409945274,-3.01103393060055e-05,-2.37159445391502e-05
-0.00168074379448556,0.00629327334721526,-3.09394306726355e-05,-8.05917226791144e-06
-0.00168000469684629,0.00630993880688779,-3.06427918701312e-05,9.4009861786334e-06
-0.00167937288757401,0.00632782020138623,-2.98984187864938e-05,2.59548771940414e-05
-0.00167781124578781,0.00634321012158454,-2.88192065411889e-05,3.93029253892011e-05
-0.00167530785055803,0.0063516501397878,-2.63914685498544e-05,4.84198219961288e-05
-0.00167058716241045,0.00635904111618049,-2.19996515800641e-05,5.40262551013356e-05
-0.00166537771614657,0.00636397638106205,-1.6649709195295e-05,5.86130020446499e-05
-0.00165951261875109,0.00637036599936283,-1.1809067129667e-05,6.43498656443396e-05
-0.00165618667937438,0.0063775185571622,-7.78784195142291e-06,6.98606398521461e-05
-0.00165164480517178,0.00637809076178615,-4.21560841992271e-06,7.03677180128414e-05
-0.00164891491227835,0.00637064018074513,-1.45713494397639e-06,6.24667235857872e-05
-0.00164740095421081,0.00635767020926894,-3.47150159919574e-07,4.79798222716638e-05
-0.00164784202860844,0.00634210147512564,-7.14201854780334e-07,3.19350555665245e-05
-0.00164750824257781,0.00632844008972884,-1.19998514414452e-06,1.77989972936414e-05
-0.00164674530307921,0.00631756820187379,-5.97922408749888e-07,6.33861011956522e-06
-0.00164515981943368,0.00631015338362177,1.36159321954605e-06,-1.81727215363613e-06
-0.00164092788940238,0.006307578462814,4.49906343687619e-06,-5.24742083944138e-06
-0.00163639793612945,0.00630958117899782,8.60042268976476e-06,-4.14523952224081e-06
-0.00163280973630009,0.00631039180221509,1.30629936649125e-05,-1.86411247506324e-06
-0.00162804136443385,0.0063125018067659,1.66259894422226e-05,-2.57207523776997e-06
-0.00162638435521033,0.00630782880233698,1.77858365693416e-05,-7.62953212728795e-06
-0.00162901888066643,0.00629911460275141,1.5591575069633e-05,-1.48486804836199e-05
-0.001633918382759,0.00629411973322151,1.05250877578579e-05,-2.10337661881037e-05
-0.00163834104766494,0.00629245080306833,4.92288154281933e-06,-2.47851689500713e-05
-0.00164206037772062,0.0062889222078873,1.72649020979613e-06,-2.68691556817599e-05
-0.00164176235447898,0.00628737248703077,1.74170875779623e-06,-2.82013384404266e-05
-0.0016407848382464,0.00628919638926961,2.46603697141621e-06,-2.79738423647098e-05
-0.00164203653586129,0.00629336871465258,8.18475778709276e-07,-2.43289016272572e-05
-0.00164585123335428,0.00629959143993803,-3.052665870701e-06,-1.68661213756759e-05
-0.00164892683320801,0.00630916394645953,-5.96607816962018e-06,-7.73388652149316e-06
-0.00164849767974005,0.00631778277860777,-5.82559671038071e-06,9.41969809169535e-08
-0.00164624462403325,0.00632290877836399,-4.05344851385361e-06,4.93710384165789e-06
-0.00164599428451027,0.00632361211321426,-3.32122325809895e-06,6.53258896295519e-06
-0.00164692411702419,0.00632205047142806,-4.30373140269745e-06,5.25309028279583e-06
-0.0016479970006941,0.00632028617383755,-5.76295591103259e-06,2.22065634646856e-06
-0.00164918909366066,0.00631735362513981,-6.6367693971707e-06,-7.43753520957988e-07
-0.00164897451692668,0.00631349124392815,-6.53843108875269e-06,-2.75489987085874e-06
-0.0016479254751161,0.00631206073236827,-4.98883429623078e-06,-4.93969912804456e-06
-0.00164451608923173,0.0063095215743495,-1.96198957754397e-06,-8.24169325321137e-06
-0.00164192924749429,0.00630705394190871,1.02065840414378e-06,-1.03099170860982e-05
-0.00164097557312105,0.00630886592321789,2.14803318373195e-06,-6.59661258731784e-06
-0.00164157161960433,0.00632075109009451,1.96132120254606e-06,4.46681158518059e-06
-0.00164061794523108,0.00633629598237848,3.07362109299136e-06,1.85185069900895e-05
-0.00163698206168306,0.00634385385178649,6.53728552617959e-06,2.85472881769258e-05
-0.00163470516411693,0.00634530820520569,9.97107588050174e-06,3.0680626271017e-05
-0.00163437137808629,0.00634241141929694,1.0497161830411e-05,2.61644206065687e-05
-0.00163614759660647,0.00633401908481235,8.48744043670024e-06,1.83975368659308e-05
-0.00163861522904725,0.00632350482484727,6.90002616281706e-06,9.34833150532274e-06
-0.00163906822437455,0.00631310977417885,7.42758296468396e-06,-7.38933620313439e-07
-0.00163747081979935,0.00630366839788368,8.91751750725135e-06,-1.09842693447371e-05
-0.00163685093145674,0.00629581250523403,9.63604132581929e-06,-1.86186911681343e-05
-0.00163873443834391,0.0062912467891721,9.49722170254112e-06,-2.10463390181522e-05
-0.00163904438251521,0.00629392899834686,9.34787834901674e-06,-1.88942770383507e-05
-0.00163897285693722,0.00629777945862886,9.27326791651618e-06,-1.57632690001068e-05
-0.00164083252196506,0.00629761256561354,8.86301780320375e-06,-1.44016832509891e-05
-0.00164201269400195,0.00629714764935658,8.66147115960068e-06,-1.42118185139385e-05
-0.00164039144756743,0.00629819669116716,9.99041808290665e-06,-1.34301134550524e-05
-0.00163850794068026,0.00629898347252509,1.30271614329336e-05,-1.24069572345246e-05
-0.00163676748494908,0.00629814900744849,1.5987665548681e-05,-1.26872669393738e-05
-0.00163583765243516,0.00629643239357664,1.68801904085581e-05,-1.34223372473478e-05
-0.00163832912673528,0.00629872121207244,1.5602521090452e-05,-1.13874915670515e-05
-0.00164101133591004,0.00630465783504592,1.35442007542261e-05,-5.37260793838144e-06
-0.00164405117297478,0.0063105944580194,1.12646583580533e-05,1.61161044585268e-06
-0.00164860496810704,0.00631489791362869,7.53551627837201e-06,5.96394045971446e-06
-0.00165576944683608,0.00631623305775124,1.25132962171147e-06,7.76074048605139e-06
-0.00166357765576706,0.0063182238530054,-6.26897249779431e-06,9.68774156492479e-06
-0.00167046795311379,0.00632070340637585,-1.18729921702935e-05,1.29314106438417e-05
-0.00167322168786655,0.00632393397831523,-1.37320410381469e-05,1.6327634842076e-05
-0.0016726494832426,0.00632642545261535,-1.33591141553283e-05,1.91186931309178e-05
-0.00167499790638673,0.00632903613621212,-1.40240015832295e-05,2.21298341359826e-05
-0.00167888412945772,0.00633250512674481,-1.734198422172e-05,2.55901297352009e-05
-0.00168334255715266,0.006334174056898,-2.17511569081669e-05,2.76448761164534e-05
-0.00168738375230931,0.00633198060583953,-2.41934521647261e-05,2.63074763755222e-05
-0.00168583403145278,0.00632826127578385,-2.28835140800209e-05,2.20207858758594e-05
-0.00168267498509139,0.00632299222487165,-1.84522217868929e-05,1.72222440585851e-05
-0.00167768011556149,0.00631921329016765,-1.29304107249365e-05,1.37591891435782e-05
-0.00167294750648424,0.00631603040194693,-8.10144986491801e-06,1.14337225319112e-05
-0.00167038450660613,0.00631409921134109,-4.76764476527909e-06,8.74520087477518e-06
-0.00166966925082619,0.00630960502085716,-3.0433800832224e-06,4.39699675253393e-06
-0.0016692520182879,0.0063019279421525,-2.74372544363553e-06,-1.77931879635702e-06
-0.00166995535313817,0.0062957529005857,-3.32849784976817e-06,-8.86505204206185e-06
-0.00167169580886935,0.00628844537070068,-3.89429152034114e-06,-1.57178682721865e-05
-0.00167186270188467,0.00628223456634489,-3.7366042798489e-06,-2.1782940395345e-05
-0.00167051563683245,0.00627696551543269,-2.92102945474193e-06,-2.68034906272042e-05
-0.00167024145545014,0.00627299584585403,-1.9662806791081e-06,-3.00425599851304e-05
-0.00166999111592717,0.00627274550633106,-1.01377457155997e-06,-3.08687936719556e-05
-0.00166862020901562,0.00627336539467367,2.56719639561231e-07,-3.04212381206092e-05
-0.00166635523237915,0.00627098120874054,1.90849171827992e-06,-3.1368355021265e-05
-0.00166568766031788,0.00626746453448919,3.5520377104895e-06,-3.484106811724e-05
-0.00166423330689867,0.00626539029272737,5.02743179196053e-06,-3.83632655494385e-05
-0.00166226635350384,0.00626401938581582,6.61076703099411e-06,-3.81429721766636e-05
-0.00166057358149133,0.00626859702280742,8.20825822989494e-06,-3.29909542447251e-05
-0.00165966759083674,0.00627776421772028,9.07209981623781e-06,-2.47329516290888e-05
-0.001660478214054,0.00628676451961783,8.84767962503572e-06,-1.53987372586664e-05
-0.00166018019081236,0.00629547871920339,8.12167039974563e-06,-6.01029968709777e-06
-0.00166088352566263,0.00630309619325973,7.14843147502235e-06,1.87110915435691e-06
-0.00166335115810342,0.00630753077909534,4.90357564127437e-06,5.89683304382722e-06
-0.0016676546137127,0.00630649365821443,7.05408888909622e-07,5.56024058654081e-06
-0.00167098055308941,0.00630465783504592,-3.8366261059476e-06,3.52047380191669e-06
-0.00167285213904692,0.00630350150486836,-6.23474373315495e-06,2.89118124356874e-06
-0.00167396078550582,0.00630420483971863,-6.40128651609673e-06,4.33591858321913e-06
-0.0016729951902029,0.0063083056395236,-6.64452093471273e-06,7.1185467621473e-06
-0.00167347202738953,0.00631138123937733,-8.02368479361516e-06,1.16292978067434e-05
-0.00167423496688813,0.00631809272277908,-8.75921282791633e-06,1.87546005705088e-05
-0.0016726852460316,0.00632724799676227,-7.39494497475342e-06,2.73268128177228e-05
-0.00167031298102814,0.00633393563830469,-5.6887724294254e-06,3.43904872550886e-05
-0.00166969309268553,0.00633707084280675,-6.41023904861993e-06,3.81993822705102e-05
-0.00167287598090625,0.00633822717298431,-9.2660874383812e-06,3.93285214611837e-05
-0.00167436609711445,0.00633721389396273,-1.11116788713803e-05,3.87086446188071e-05
-0.00167179117630668,0.00633521117777891,-9.96683380080885e-06,3.63844084866105e-05
-0.00166873941831228,0.00633069314543564,-7.00659582288948e-06,3.28367514757403e-05
-0.00166556845102122,0.00632784404324556,-4.46937492709893e-06,2.983234807049e-05
-0.00166379223250104,0.00632636584796702,-3.24551529195596e-06,2.86033274991475e-05
-0.00166310081858044,0.00632530488522678,-2.99585478518193e-06,2.79371220382026e-05
-0.00166230211629284,0.00632289685743432,-3.27096596711885e-06,2.53106863151836e-05
-0.00166236172094117,0.00631685294609385,-3.71932292539141e-06,1.99414677346381e-05
-0.00166262398139381,0.00631085671847205,-3.99671891570362e-06,1.41609861275196e-05
-0.00166149149307558,0.00630836524417193,-4.06596966385634e-06,1.15543047006347e-05
-0.00166076431636598,0.00631027259291843,-4.00607789107411e-06,1.35020952369459e-05
-0.00165991793035972,0.00631345548113915,-3.21328652708785e-06,1.72084505364907e-05
-0.00165656814912368,0.00631303824860085,-5.56608210158573e-07,1.74038512789829e-05
-0.00165137062378947,0.00630725659771303,4.1798779520902e-06,1.06552370538772e-05
-0.0016448737171217,0.00629431046809616,9.62476738547651e-06,-1.94312290077702e-06
-0.00164064178709041,0.00627868212930454,1.41251622155915e-05,-1.64574333101082e-05
-0.00163673172216008,0.0062662128368743,1.73204087237922e-05,-2.96283596991231e-05
-0.0016335011502207,0.00625606812572885,1.99953505365648e-05,-3.99217243398687e-05
-0.00163025865735165,0.0062494996934831,2.2704173189011e-05,-4.63322313264168e-05
-0.00162793407606686,0.00624696053546432,2.49293910671199e-05,-4.83415234299629e-05
-0.00162699232262327,0.00624812878657155,2.54721568118333e-05,-4.708328576909e-05
-0.00162847051790181,0.00625194348406455,2.35673938764711e-05,-4.45492578792684e-05
-0.0016316653270522,0.00625470913974697,1.97655252635628e-05,-4.11259602993338e-05
-0.0016361714384658,0.00625926293487924,1.55204901429879e-05,-3.56453685834509e-05
-0.00163953314063151,0.00626788176702748,1.15273534645098e-05,-2.8409582512759e-05
-0.00164409885669344,0.0062745336457809,6.89719029499218e-06,-2.21130747509765e-05
-0.00164972553549561,0.00627728738053366,8.66960566489488e-07,-1.85257550607736e-05
-0.00165535221429778,0.00628027953387973,-4.98721524270649e-06,-1.60183450398376e-05
-0.00165841589322185,0.00628452338484069,-7.70916587789962e-06,-1.21024411962215e-05
-0.00165665159563134,0.00629015006364286,-6.54990089388769e-06,-7.20897164870775e-06
-0.00165401707017523,0.00629302300769228,-4.2787545661026e-06,-4.07775194132773e-06
-0.00165457735386952,0.00629308261234061,-4.09172555089624e-06,-4.09950702716553e-06
-0.00165592441892173,0.00629167594264006,-6.26956857110067e-06,-5.97192276389799e-06
-0.00165894041412714,0.00629154481241374,-8.86589800241718e-06,-7.4296906737822e-06
-0.00166032324196835,0.00629183091472572,-1.05995398712492e-05,-6.51447749099985e-06
-0.00166130075820093,0.00629684962611494,-1.14904228657034e-05,-1.51437990513535e-06
-0.00166146765121625,0.00630785264419631,-1.12277675477237e-05,8.07462357203461e-06
-0.00165840397229218,0.0063201312017519,-8.90326862323143e-06,1.97702922462962e-05
-0.00165494690268915,0.00632889308505613,-4.79609309850506e-06,2.88592287605474e-05
-0.00165109644240716,0.00633260049418214,-9.19755004630621e-07,3.22014170969403e-05
-0.00164862880996637,0.00633256473139314,1.07866145587885e-06,3.08783131656673e-05
-0.00164885530763002,0.00633091964309929,1.62053902478233e-06,2.84826972127e-05
-0.00164855728438838,0.00632915534550877,1.93592230510504e-06,2.71948174952284e-05
-0.00164787779139744,0.00632854737809583,1.93840679319052e-06,2.60459345794207e-05
-0.00165008316338558,0.00632712878746562,6.50724334368411e-07,2.27161416844127e-05
-0.00165245542838904,0.00632046498778254,-1.49358058170325e-06,1.63619354346469e-05
-0.00165264616326369,0.00631270446257022,-2.21467799151412e-06,8.41404730939679e-06
-0.00165048847499421,0.00630627908148045,1.355641042701e-07,8.65114768343913e-07
-0.00164667377750121,0.00630055703524095,4.4988504615184e-06,-5.61794252535514e-06
-0.00164315710324985,0.00629531182618808,8.2711422298987e-06,-1.14177948313586e-05
-0.00164093981033205,0.00629046000781417,9.99974185719188e-06,-1.62165093266755e-05
-0.00164073715452773,0.00628910102183229,1.00378423703508e-05,-1.86297521766258e-05
-0.00164322862882785,0.0062909010822118,8.8716573665953e-06,-1.8004645362602e-05
-0.00164572010312796,0.00629298724490328,6.11790935870341e-06,-1.56348395824457e-05
-0.00164895067506735,0.00629593171453069,1.67241123029504e-06,-1.3247062955488e-05
-0.00165512571663414,0.00629986562132034,-3.07810334936301e-06,-1.07839197688356e-05
-0.00165827284206586,0.00630368031881334,-6.12224572466504e-06,-6.84858208474192e-06
-0.00165852318158884,0.00630949773249017,-6.74704973229048e-06,-1.42293405349501e-06
-0.0016574622188486,0.00631498136013635,-6.12478133244874e-06,2.90129725198645e-06
-0.00165812979090987,0.00631554164383063,-6.10406962406891e-06,3.10879796087643e-06
-0.00166014442802336,0.00631116666264335,-7.60673317914057e-06,-1.12264938356337e-06
-0.00166136036284926,0.00630660094658142,-9.86990817047063e-06,-7.10999236203702e-06
