BCL,BCC,BCL_Filtered,BCC_Filtered
-,-,-,-
0.000119888789647149,0.000412273431555833,-1.40443444803064e-20,-9.39409968507024e-21
0.000122046477916627,0.000408959413108791,8.61647255245415e-06,2.29268914306326e-07
0.000115787989842176,0.000401926064606074,2.27891492525624e-06,-7.75536429831732e-06
9.82523023040475e-05,0.000383865856162659,-1.53987076783245e-05,-2.31492699553867e-05
7.25746198043e-05,0.00036276581065451,-3.27706236961452e-05,-4.15216304891261e-05
5.25593788957226e-05,0.000339400788509893,-4.95845799238319e-05,-6.32193884815794e-05
2.93731706960899e-05,0.000313675422291483,-7.20744349197113e-05,-8.81832176381444e-05
4.35113932795163e-06,0.000293433683719259,-9.4749938489672e-05,-0.000106091466286862
-7.20024151803502e-06,0.00029538871618442,-0.000102367583515913,-0.000102173283273087
3.87430214132679e-06,0.000321555156800458,-8.83703546966387e-05,-7.48177048635863e-05
2.92062776807712e-05,0.000353467485515325,-5.83196004791362e-05,-4.05598997762036e-05
7.18355221650316e-05,0.000375044368210099,-1.75647854225509e-05,-1.86783580074374e-05
0.000117290026980044,0.000377500079721217,2.87991894561966e-05,-1.49442692856311e-05
0.000146329411645497,0.000366568587217843,6.51125459300044e-05,-2.18693975191404e-05
0.000151789197432351,0.000359785578238104,7.50170699029316e-05,-2.95852004687403e-05
0.000151801118362017,0.000356447717931731,6.73748002597564e-05,-3.27388103063708e-05
0.000156974801836896,0.000356590769087718,7.08430216707344e-05,-3.02014414057395e-05
0.000158464918045099,0.000359392187559139,9.05742572381146e-05,-2.33751928837775e-05
0.000155425080980365,0.000368988535939964,9.04216411179695e-05,-1.58559830803411e-05
0.000148248681321662,0.000377523921580548,3.7351877292861e-05,-1.27422679744272e-05
-9.79900418514038e-06,0.000356209299338418,-5.18220094132225e-05,-1.83226081722165e-05
-4.63128117509372e-05,0.000351202508878857,-0.000131418221170713,-3.25839031960233e-05
-0.000103557116005249,0.000337541123482056,-0.000183660821800446,-4.8673001557997e-05
-0.000157308587867533,0.000323402900898629,-0.000226732892830263,-5.52875817997788e-05
-0.000194084655885974,0.000332021733046873,-0.000270825916563581,-4.51728396979574e-05
-0.000225985063671175,0.000359523317785461,-0.000298604193011977,-2.2962956625496e-05
-0.000221514715046568,0.000379419349397382,-0.000296957596548134,-3.20464341655178e-06
-0.000197863590589976,0.000377619289017873,-0.000279968527784972,1.17865287582467e-06
-0.000192666065255765,0.00036671163837383,-0.000265595003852672,-1.07860545060771e-05
-0.000177443038072767,0.000353431722726329,-0.000252119002910452,-2.85574494587108e-05
-0.000152218350900313,0.000340199490797489,-0.000235804613192285,-4.05017237983988e-05
-0.000149047383609258,0.000331246872618608,-0.000231786736888955,-4.47859655337864e-05
-0.000174605856812349,0.000327467937914606,-0.00025125151479213,-4.98196549497269e-05
-0.000185179721425755,0.000322711486978023,-0.000267319242462034,-6.1545302613518e-05
-0.000143814095486051,0.000307369250498369,-0.000230935564038577,-7.03399441190806e-05
-3.64542029174687e-05,0.000319814701069278,-0.000123872602902901,-5.6418574572314e-05
0.000104618078745489,0.000369036219658626,2.09407729235803e-05,-1.31347357357818e-05
0.000238871588639712,0.000419819380034171,0.00015403299182119,3.97332163286377e-05
0.000347268602089202,0.000453567531917544,0.000250200297173283,7.43809504937693e-05
0.000403511548251602,0.000465285805778849,0.000313627870940841,8.53050887063468e-05
0.000445544746252581,0.000470912484581022,0.000358558254374254,9.1406497017501e-05
0.000489807158101032,0.00048842433025982,0.000393028858110285,0.000106253990760969
0.000510263473407237,0.000499224692536872,0.000413197459423396,0.000118267544215844
0.000501978427289631,0.000487911730284198,0.000407104183545214,0.000108781050402379
0.000462174443136122,0.000462079075698797,0.00036820293741748,8.08135353891501e-05
0.00040740969225226,0.000439834620942749,0.000307278186724504,5.67597508293624e-05
0.000346827527691575,0.000431215788794505,0.000245729238297314,5.01983802359989e-05
0.000292575376783334,0.000433111216611339,0.000196087388360846,5.32384529220258e-05
0.000254797950672981,0.000435817267645435,0.000155075042462902,5.36079312651312e-05
0.000218403352403841,0.000434780146764526,0.000115759389090683,5.1532534720543e-05
0.000178492079883342,0.000433969523547263,7.79956959350965e-05,5.28333958781484e-05
0.000144743927999969,0.000434863593272185,4.46167065542944e-05,5.47687015289651e-05
0.000117087371175728,0.000431573416684474,1.59915314406086e-05,4.88587361887314e-05
9.62615070498888e-05,0.000416564966235457,-6.66283296792023e-06,3.36136073111429e-05
8.04543543132755e-05,0.000395965599773264,-1.87419690708271e-05,1.54162518410473e-05
8.2325940270778e-05,0.00037871601454711,-1.80678604129127e-05,-1.32017842646029e-06
9.35912188047897e-05,0.000366485140710183,-8.89451595882572e-06,-1.6531828462337e-05
0.000102055078867381,0.000353395959937332,3.71067652671835e-06,-2.77609059978794e-05
0.00011585951542017,0.000350356122872598,1.8990466199704e-05,-2.9800076821673e-05
0.000137829788793909,0.000356924555118355,3.60100105177241e-05,-2.30954227279631e-05
0.000146424779082822,0.000365901015156568,4.83349874158457e-05,-1.53422295649878e-05
0.000139725216610743,0.000368571303401667,4.80751394921735e-05,-1.16760623561249e-05
0.000131022937954839,0.000369620345212242,3.3009378298581e-05,-9.47009744333535e-06
0.000105512148470411,0.000372397921824331,6.72381165917318e-06,-6.6157311013746e-06
6.34074248914376e-05,0.000371003173053454,-2.51685714993988e-05,-8.81436876142552e-06
3.44753285929756e-05,0.000356113931901093,-5.5866069582143e-05,-2.23892875304666e-05
1.95145618626214e-05,0.000334692021291972,-7.82899171879617e-05,-4.33220976076459e-05
-2.15768826947738e-06,0.00031784774767445,-8.99839903533062e-05,-6.01181932967696e-05
-1.10507018000306e-05,0.00031093360846839,-9.57838138317233e-05,-6.67994280470402e-05
-1.15513808459867e-05,0.000309050101581222,-0.000102779198063393,-6.77306286636722e-05
-2.50458732274695e-05,0.000308144110926635,-0.000114032240299549,-6.93368884338984e-05
-4.69923047418776e-05,0.000304937380846583,-0.000128043007851965,-7.15424220376926e-05
-5.51223787738311e-05,0.000306129473813145,-0.000140249432294334,-6.8652139003591e-05
-5.64694438260462e-05,0.000321614761448786,-0.000143189779957352,-5.54607326226249e-05
-5.03778487669139e-05,0.00034558775100635,-0.000130672276357103,-3.08219719759841e-05
-2.50220313681383e-05,0.000376117251880005,-0.000105175840164348,2.68709143716513e-06
8.90493446021881e-06,0.000415062929097589,-7.53369778982044e-05,4.02328652487571e-05
3.6633016862453e-05,0.000452506569177304,-4.25385749441536e-05,7.53392443720835e-05
7.80344055911544e-05,0.000473010568202172,9.13083530629528e-07,9.99173923995215e-05
0.00013382435642626,0.000480198888790541,5.17782050788914e-05,0.000106186689489359
0.000162374982975422,0.00046683552663538,8.31129767872325e-05,9.16250147794048e-05
0.000141608723497911,0.000435757662997106,6.68077005788487e-05,6.1813459001991e-05
8.73088888710075e-05,0.00040030481817155,6.97540170587476e-06,2.51617204450251e-05
1.63912782902287e-05,0.000358450434115555,-6.33227856524688e-05,-1.49325837846034e-05
-4.30941607412196e-05,0.000315594691967648,-0.000118746805655916,-5.78679994856238e-05
-8.19206286621468e-05,0.00028011800528276,-0.000159912106585432,-9.58580434207063e-05
-0.000112080580716168,0.000260329262037829,-0.000192733286843016,-0.000114932666457466
-0.000131535537930461,0.000261032596888101,-0.000208215324823776,-0.00011109128619951
-0.00011308193880808,0.000277650372841976,-0.00019397840208759,-9.75079137754361e-05
-7.49707266670898e-05,0.000290846841981819,-0.000152759163743451,-8.67686211557076e-05
-1.66416178132068e-05,0.000302362460038809,-9.61938221715119e-05,-7.20624521228264e-05
5.51700624924935e-05,0.000334692021291972,-2.98179637706959e-05,-3.82709870199914e-05
0.000119006640851893,0.000389409088457172,4.14927956291738e-05,1.10039000009116e-05
0.000181400786721753,0.000429201151681015,0.000100439505755957,5.2053712409243e-05
0.000213563454959598,0.000444161918411369,0.000125945561164687,6.90251776262377e-05
0.000195002567470227,0.000446212318313856,0.000112920192913035,6.96620628335626e-05
0.000152921685750585,0.000445890453212884,7.12272019722022e-05,6.7624636881355e-05
9.76443348911008e-05,0.000441443946447608,9.59040721258277e-06,6.24334935225294e-05
2.45213523221822e-05,0.000425016905368382,-6.40432336289427e-05,4.72931916037535e-05
-4.67777280078964e-05,0.000403368497095614,-0.000129489893007125,2.65736648060555e-05
-7.13706059080723e-05,0.000392603897607559,-0.000161670104262639,1.14805541612779e-05
-6.47187271546559e-05,0.000384199642193296,-0.000155129537942726,2.89098493056571e-06
-3.79085563366745e-05,0.000369310401040936,-0.000125481376180965,-8.0691866813138e-06
8.45193913292522e-06,0.000357043764415012,-8.27097287212147e-05,-2.34181532493716e-05
7.1978573321019e-05,0.000348842164805064,-2.04411164466914e-05,-3.44459806304585e-05
0.000152599820649613,0.000345301648694375,6.16991926314006e-05,-3.54872739162959e-05
0.000236105932957288,0.000350523015887917,0.000144075385028777,-3.04353215617283e-05
0.000303614157653699,0.000359141848036161,0.00020816415594683,-2.28116242676514e-05
0.000347745439275827,0.000374102614766515,0.000256265060747556,-9.97408195148987e-06
0.000388777279184894,0.000390350841900756,0.000294842327114373,7.73875966789393e-06
0.000408005738735541,0.000403916859860233,0.000312006923344999,2.14431435056331e-05
0.000386369251392439,0.000408303761977181,0.000292329048654308,2.46983202758767e-05
0.000339317342002233,0.000407314324814935,0.000247122020701183,2.34145009365358e-05
0.000306296366828463,0.000411641622283555,0.000208072458924758,2.67208340855936e-05
0.000282859819105853,0.000416409994149804,0.000189750553295744,3.26803224861478e-05
0.000268530861647776,0.000413954282638686,0.000175457881731624,3.19911782402386e-05
0.000239717974645971,0.000410449529316993,0.00014323392121579,2.34454156362084e-05
0.000183975707529527,0.000401484990208446,9.14954028085018e-05,1.61876054223787e-05
0.000128567226443721,0.00039714577181016,3.44426081214219e-05,1.57684591412709e-05
7.71164940069016e-05,0.000400936627443828,-1.52982499579489e-05,1.62555787577388e-05
4.00066399578237e-05,0.000396406674170892,-5.19530950722983e-05,9.57711204736481e-06
2.13027013124646e-05,0.000380361102840966,-7.20531157825284e-05,-3.21374527948224e-06
1.76310549754533e-05,0.000367319605786777,-7.19083257396375e-05,-1.42262207757788e-05
4.06622910894329e-05,0.000366842768600152,-4.8891442605801e-05,-1.82908688720398e-05
8.49127820082177e-05,0.000369751475438563,-5.7623433855217e-06,-1.57955631835389e-05
0.000131285198407483,0.000373280070619587,4.3416026456688e-05,-8.48610778194338e-06
0.00016406775498794,0.000384593032872262,7.6248331849544e-05,2.80313581552025e-06
0.000162923345740041,0.000400674366991184,7.90312822921488e-05,1.66808970399168e-05
0.000146245965137837,0.00041470530120762,5.85956322937889e-05,3.1258879371645e-05
0.00011558533403786,0.000427150751778528,2.95091855877716e-05,4.62936673041289e-05
7.1978573321019e-05,0.000442838695218485,-6.09412443288236e-06,6.25367991914938e-05
2.93850916257555e-05,0.000460255173459957,-5.45504129239179e-05,7.78800397466523e-05
-2.63571754906878e-05,0.000467729596360302,-0.000110642389136724,8.60470161796319e-05
-8.16702891391688e-05,0.000459802178132664,-0.000158251955788216,8.06016202546409e-05
-0.000116002566576157,0.000437593486165612,-0.00019307803666693,5.9824101683146e-05
-0.000147831448783365,0.000408959413108791,-0.000228366807032775,2.74580093224977e-05
-0.000193667423347677,0.000369739554508898,-0.000271215974270799,-1.01646514081072e-05
-0.00023528338881036,0.000327742119296915,-0.00030657566967674,-4.70874423626368e-05
-0.000236809267807559,0.000299727934582706,-0.000313752885343611,-7.89282089471748e-05
-0.000214910520011814,0.000276553647312739,-0.000288795109487108,-0.00010249589599205
-0.000171649466255275,0.000260531917842145,-0.000242272695591758,-0.000114811623286751
-0.000110673911015624,0.000262701527041288,-0.00018463123047394,-0.000113365492609772
-5.49793276178436e-05,0.000276744382187389,-0.000123742493544397,-9.86656399917057e-05
-5.60283694284182e-07,0.000300085562472675,-6.92819776828116e-05,-7.63756988028535e-05
4.4620039738419e-05,0.000320148487099915,-2.78297303048537e-05,-5.47931529705123e-05
7.24911732966407e-05,0.000334632416643644,4.16999642836463e-06,-3.890504361439e-05
9.76443348911008e-05,0.000345778485881,3.5627540731567e-05,-2.80439032256704e-05
0.000143170365284107,0.000355231783105837,7.15914558343958e-05,-1.98650484919774e-05
0.000181388865792088,0.000360608122385032,0.000112357376912998,-1.37251767686782e-05
0.000215470803706098,0.000362980387388491,0.000155168808371326,-7.52099734640858e-06
0.000256633773841487,0.00037966968892036,0.000190927244869933,5.69633154565532e-06
0.000274336354394934,0.000406777882979982,0.000205570719268773,3.15355645190207e-05
0.00025545360180459,0.000434112574703251,0.000191680314427302,6.33738312694296e-05
0.000214576733981176,0.000455105331844409,0.000154229110266558,8.33120385119256e-05
0.000166893015318693,0.000452768829629947,0.000100860257496719,7.86868267845042e-05
9.98139440902438e-05,0.000428986574947034,3.46767611676638e-05,5.55276641671883e-05
2.36749663159231e-05,0.000403141999431968,-3.75738939310809e-05,3.17591116338519e-05
-3.82542632969775e-05,0.000390565418634738,-0.000100730270872594,1.85736237724014e-05
-8.07166147659191e-05,0.000387465976921676,-0.00014460594513482,1.25852801133909e-05
-0.000111532217951549,0.000378501437813129,-0.000173173927369814,5.04697383793079e-06
-0.000126111514932604,0.000364422819878031,-0.000189222121524025,-7.205895669182e-06
-0.000116932399090075,0.000352680704157394,-0.000179601150259208,-2.16018078539139e-05
-7.21931500550002e-05,0.000341010114014752,-0.000131408931364247,-3.49027481711822e-05
7.28368802569437e-06,0.000329923649425724,-5.61195406328114e-05,-4.35928946720612e-05
8.48174145708927e-05,0.000332093258624867,2.04377916663393e-05,-4.18540269432847e-05
0.000147175797651756,0.000352561494860738,8.8716795681612e-05,-2.50330351306555e-05
0.000216460240868344,0.000379204772663401,0.000156598657417398,3.31108347826732e-06
0.000284898298078674,0.00040607454812971,0.000220370505023672,3.06605417556765e-05
0.000320327301044899,0.000422942663606564,0.000257283339349319,4.3984127448717e-05
0.000311851520052643,0.000417220617367066,0.00025535624817132,3.9044831966564e-05
0.000292599218642665,0.000400006794929909,0.000232495067046771,2.21072541314289e-05
0.000281083600585675,0.000384676479379921,0.000214022128391602,4.32497461583723e-06
0.000263190285157578,0.00037572386120104,0.000204489431853033,-5.4301262245041e-06
0.000249695792776095,0.000375556968185721,0.000193976513974304,-4.89220946890367e-06
0.000244665160457203,0.000383770488725334,0.000180289135051418,1.5693094523433e-06
0.000232148184308301,0.000390541576775406,0.000168951472262362,6.86566720753375e-06
0.000214803231644823,0.000390744232579722,0.000157767094691507,6.55814128561242e-06
0.000196301948803779,0.000385868572346483,0.000137731664642328,1.44964838794478e-06
0.000171685229044272,0.000380265735403641,0.000108380122611203,-4.8618534004969e-06
0.000140559681687336,0.000377988837837508,7.91387064211008e-05,-1.05221362627738e-05
0.000111603743529543,0.000370728991671144,5.41352256047393e-05,-1.65157979238904e-05
8.56280377881549e-05,0.000364255926862712,2.62080199335621e-05,-2.30141029829098e-05
5.06758720085545e-05,0.000364196322214384,-1.16970722980092e-05,-2.63972274181633e-05
3.32593937670823e-06,0.00036891701036197,-5.78651939551509e-05,-2.23374185992412e-05
-4.91023092926925e-05,0.000378584884320789,-0.000107173790035745,-1.19014477848295e-05
-9.80615674293975e-05,0.00038965942798015,-0.000157092557021541,-1.91885261920897e-06
-0.00014073849563232,0.00039627554394457,-0.000204107937208757,2.28294266179504e-06
-0.000178480158953676,0.000397169613669492,-0.000240580826231991,2.31177491273702e-06
-0.000205802929747279,0.000395035767259345,-0.000261670072566656,2.26136502631207e-06
-0.000211918366665743,0.000396406674170892,-0.000274172152382851,4.52168636723408e-07
-0.000229322923977549,0.000386989139735051,-0.00029484127884816,-1.0234129755802e-05
-0.000278854386738204,0.000363266489700466,-0.000337930941439547,-3.29684935168606e-05
-0.000341725369794689,0.000335490723579569,-0.000399802215553579,-6.10333622147004e-05
-0.000382316135306128,0.000316333789606916,-0.00044953893385457,-8.26563932867719e-05
-0.000373113177604269,0.000309419650400856,-0.000437301166433476,-8.93283411726022e-05
-0.000269079224412395,0.000319337863882653,-0.000326224339937053,-7.81013772174113e-05
-6.14166296372789e-05,0.000351297876316182,-0.000128310341419041,-4.92811337987483e-05
0.000159156331965705,0.000393140339442512,9.29970444327482e-05,-6.34264214803125e-06
0.000327682514648587,0.000440347220918371,0.000264759178536265,4.18103751169509e-05
0.000417089487140744,0.000483262567714606,0.00035258799566862,8.19600355662932e-05
0.000434422518874557,0.000502777129577227,0.000367712786787958,0.000102874518875546
0.000404238724961205,0.000500988990127384,0.000335201019668476,0.000101977601627846
0.000334513207346988,0.000487363367519579,0.00026870415865543,8.65595451931821e-05
0.000243365779123651,0.000467395810329664,0.000177481357420414,6.77739417228409e-05
0.000154030332209488,0.000451433685507398,8.16799234814645e-05,5.15865153482611e-05
7.44819685507994e-05,0.000433826472391276,4.94569362153692e-06,3.50949073435821e-05
2.3174287269967e-05,0.000411486650197902,-4.58229406229048e-05,1.28117641297821e-05
-1.1730194790971e-05,0.000385344051441196,-8.17153383042441e-05,-1.41881235280992e-05
-3.75866912357027e-05,0.00035892727130218,-0.000111616420798497,-3.81294895432335e-05
-5.55992159604559e-05,0.000343990346431157,-0.000130289628198804,-5.31454529829529e-05
-6.03079831783761e-05,0.000336754342124125,-0.000129389296381371,-5.94514621898441e-05
-3.74555610093809e-05,0.000339758416399861,-0.000110483708368346,-5.73883448525273e-05
2.41994872212104e-06,0.000351011774004207,-7.96469797398953e-05,-4.29107098917667e-05
3.50236913575942e-05,0.000378727935476776,-3.56432873296166e-05,-1.4225084991479e-05
9.83834325303693e-05,0.000415027166308592,2.5643935322754e-05,2.01757965269726e-05
0.000176203261387543,0.000437712695462268,9.48769507476117e-05,4.64562984580555e-05
0.000225138677664916,0.000448274639146008,0.000146437271306682,5.83144424039293e-05
0.000229907049531165,0.000450933006461442,0.000158001928262799,6.03583982682072e-05
0.000211524975986777,0.000446927574093793,0.000132135076849648,5.90262187789184e-05
0.000177669535736414,0.000442910220796479,9.61245672785433e-05,5.5458406968019e-05
0.0001554131600507,0.000434029128195591,7.9446693873777e-05,4.84813735162335e-05
0.000167953978058933,0.000423657919386501,9.00279047873433e-05,3.94576481872003e-05
0.000190091144447991,0.000414276147739658,0.000111021133666855,3.09085599034218e-05
0.000200104725367112,0.000404727483077495,0.000120127758846944,2.31584541549624e-05
0.000189590465402035,0.000395560288164633,0.000110961887606632,1.54573422973155e-05
0.000170350084921723,0.000387477897851342,9.42576648099478e-05,9.19626698309598e-06
0.00016069413189257,0.00038503410726989,8.09370453101419e-05,7.63595523981705e-06
0.000149762639389195,0.000388729595466232,7.03767865045858e-05,1.22905333679753e-05
0.000131869323961098,0.000392889999919534,5.6691674894035e-05,2.00321431465817e-05
0.000117278106050378,0.00039703848344317,3.94188532366957e-05,2.38283445664527e-05
9.85026418270255e-05,0.000389730953558144,2.21733633714947e-05,1.77711533992555e-05
8.06331682582598e-05,0.000371837638130047,4.44569651248008e-06,3.04040763564452e-06
5.58972392020964e-05,0.000355458280769484,-1.93088953360175e-05,-1.26931988979898e-05
1.96337711592776e-05,0.00034357311389286,-5.36358776632848e-05,-2.45158563762348e-05
-2.49266639308133e-05,0.000327551384422266,-9.80687494607624e-05,-3.70471516814093e-05
-7.07507175654601e-05,0.000306177157531807,-0.000145187429581162,-5.7304604833721e-05
-0.000108265883223169,0.000283038633050837,-0.000178656010781202,-8.14376245044182e-05
-0.000111186510991246,0.000266408936167296,-0.000179455644278718,-9.465003560251e-05
-7.09891361587725e-05,0.000272476689367097,-0.000142846021775247,-8.64605223603054e-05
-1.77264224127783e-05,0.000299108046240094,-8.61841250468906e-05,-6.14362777686232e-05
3.32713146967479e-05,0.000326955337938984,-3.13074761409774e-05,-3.24925392045131e-05
8.41379215799523e-05,0.000345981141685315,1.79086066053355e-05,-8.32055446231165e-06
0.000135898598188078,0.000366044066312555,6.99659881164655e-05,9.15745693536947e-06
0.000183355819186915,0.000377440475072889,0.000120198759214332,1.96400311402432e-05
0.000205683720450623,0.000374794028687121,0.000145990424373093,2.27219394730298e-05
0.000194275390760624,0.000373446963634906,0.000132254766528182,1.98747830222403e-05
0.000150597104465789,0.000367712996465742,8.93429630028035e-05,1.33748249986467e-05
9.43899210923863e-05,0.000356614610947049,3.80379251576006e-05,3.28822916121217e-06
4.29630305148977e-05,0.000339496155947218,-1.31321994176415e-05,-1.1173873280221e-05
-7.04526943238195e-06,0.000323903579944586,-6.56492024064632e-05,-2.70591584758171e-05
-5.89847599854922e-05,0.000317239780261503,-0.000113292728779648,-3.69626144526934e-05
-8.69751028403701e-05,0.000316309947747585,-0.000139160673734224,-3.42697096806493e-05
-7.68184707652611e-05,0.000329244156434784,-0.000130664477089803,-1.96071047810361e-05
-3.76105330950339e-05,0.00035037996473193,-9.12573895466157e-05,-2.65805749369924e-06
9.69171581814979e-06,0.000357151052782002,-3.82043672567116e-05,4.3822851925618e-06
6.0248378530048e-05,0.000347721597416496,6.98471740500286e-06,-1.08786060996766e-06
7.77840660681764e-05,0.000344479104547447,2.89921166219694e-05,-7.40437900537003e-06
7.37428709115309e-05,0.000352096578603779,2.60863250505165e-05,-1.66386142697663e-06
5.88774716185016e-05,0.000364232085003381,7.61161368681334e-06,1.23440644521948e-05
2.97904032343866e-05,0.000368738196416986,-1.75913095883289e-05,1.69246701176056e-05
-5.48362764618562e-07,0.000357878229491605,-4.73990401973351e-05,3.81547514507283e-06
-3.18408031368734e-05,0.000340557118687458,-7.99037150715177e-05,-1.43357337618111e-05
-5.65528903337056e-05,0.000333166142294773,-0.00010726540404591,-2.17496603243087e-05
-7.5972084759002e-05,0.000335037728252275,-0.000120486959410175,-1.93541684513095e-05
-6.64234200968397e-05,0.000340187569867824,-0.000114513710499133,-1.682819416803e-05
-3.45945378896319e-05,0.000345897695177656,-8.47765509295132e-05,-1.31093243997209e-05
2.0217896712893e-05,0.000357282183008324,-2.8317805896467e-05,-5.05998928950035e-08
8.9871888749116e-05,0.000375568889115387,4.28093666370061e-05,1.75180443564279e-05
0.000149297723132236,0.000385618232823505,9.8897418356595e-05,2.24279777284094e-05
0.000170028219820751,0.000369465373126589,0.000118559269322431,9.02687925342891e-06
0.000164675722400887,0.000354909918004865,0.000114134048137287,-8.11242189315295e-06
0.000167262564138327,0.000348162671814124,0.000116661146002418,-1.48796875074208e-05
0.000190234195603978,0.000352776071594719,0.000136746502622335,-1.36565464596118e-05
0.000210475934176203,0.000356555006298721,0.000156147503192485,-1.08138081394467e-05
0.000214600575840507,0.000363302252489463,0.000159717731273125,-1.27663534370027e-06
0.000210845482995837,0.000393068813864518,0.000156827717698715,2.16227267063987e-05
0.000219273580269431,0.000419187570761893,0.00016091432573925,4.92841271842584e-05
0.000220894826703955,0.000435864951364097,0.000162140598079213,6.51484057252628e-05
0.000194537651213267,0.000438284900086218,0.000136101547758665,6.54885947464699e-05
0.000134050854089907,0.000434649016538204,7.42448010044818e-05,6.06281127420611e-05
5.64575228963806e-05,0.000432467486409395,-7.53563493615849e-06,5.74399683317469e-05
-2.716779870795e-05,0.000429737593515968,-8.82549595783154e-05,5.28685085290996e-05
-9.24110467678932e-05,0.000421023393930399,-0.000157502604412264,4.49407271340207e-05
-0.000145483025639237,0.000416624570883785,-0.000211327921898282,3.81171085628969e-05
-0.00017931462403027,0.000416398073220138,-0.000245226617331969,3.44387234000039e-05
-0.000191283237414553,0.000406420255090013,-0.000258772011416775,2.87501692126199e-05
-0.000191116344399234,0.000398206734550401,-0.000261011755988248,1.65038345492821e-05
-0.000191593181585859,0.000383436702694696,-0.000261870368689694,-1.17545399379716e-06
-0.000189375888668054,0.00035892727130218,-0.000257275009022528,-2.29679901560089e-05
-0.000155186662387053,0.000333237667872767,-0.000229423738184922,-4.96400137285764e-05
-9.46402606153643e-05,0.000309240836455872,-0.000167170838942204,-7.6863863827236e-05
-1.22904784852552e-05,0.000292170065174703,-8.42722414364598e-05,-9.38650366748156e-05
6.22510947138723e-05,0.000289559381577932,-1.09260044262255e-05,-9.51103920371122e-05
0.000109744078501706,0.000298178213726176,3.51109320502524e-05,-8.72182482794442e-05
0.000139892109626061,0.000310707110804743,6.34353977088441e-05,-7.8847797176394e-05
0.000164568434033897,0.000316119212872935,9.24722233384547e-05,-7.02403877995243e-05
0.000196385395311439,0.000325834770550416,0.000121911999585921,-5.9391911503354e-05
0.000210285199301553,0.000337934514161021,0.000133742104932961,-5.1642321836912e-05
0.000195693981390833,0.000335502644509235,0.000120130458764531,-5.28202003260494e-05
0.000170099745398745,0.000330400486612349,9.8716347784192e-05,-5.6250736744558e-05
0.000168383131526895,0.000338220616472996,9.40461164333104e-05,-4.77389811497734e-05
0.000186836730649276,0.000366461298850852,0.000110826766072182,-2.3805672876373e-05
0.000204372418187405,0.000391888641827621,0.000133081054256064,4.72660298776987e-06
0.000216293347853026,0.000413060212913764,0.000145586587571688,2.90482388695031e-05
0.00021905900353545,0.000440907504612655,0.00014702266537756,5.24342920470371e-05
0.000211989892243736,0.000465858010402799,0.00014153341637266,7.92135228572488e-05
0.00019515753955588,0.000486695795458305,0.000126103989730327,0.00010208481553331
0.000160193452846614,0.000493145018407405,9.35611420177589e-05,0.000108901862937479
0.000112807757425771,0.000483107595628953,4.70761687274158e-05,9.86473294656231e-05
7.18593640243628e-05,0.000467884568445955,4.90097731184273e-06,8.27994255241172e-05
4.7922137255796e-05,0.000451898601764357,-1.50325203289307e-05,7.11271155695019e-05
4.64201001179278e-05,0.000443971183536719,-1.4213802121133e-05,6.22544614864112e-05
4.90903883630269e-05,0.000431489970176814,-1.08419658982721e-05,4.94313759457268e-05
4.52160862217001e-05,0.000410127664216022,-1.5543390268927e-05,3.07658994810879e-05
3.99470353094956e-05,0.000390446209338081,-1.67861045059266e-05,1.13574471405238e-05
5.4872039250853e-05,0.000375938437935021,2.44882917436641e-06,-1.51485272143778e-06
9.40084513430864e-05,0.000373888038032534,3.85325598188934e-05,-2.71418053709227e-06
0.00012162924537833,0.000386250042095783,6.85527876592657e-05,8.82176520237734e-06
0.000125443942871329,0.000402116799480724,7.72829862994978e-05,2.86888213123984e-05
0.000120413310552437,0.000420248533502134,7.17348717711389e-05,4.74325565207688e-05
0.000113534934135373,0.000428795840072384,6.61000022676552e-05,5.52987506634712e-05
0.000108432776238488,0.000421202207875383,6.29053383127149e-05,4.87975860973018e-05
9.85980092643505e-05,0.000400888943725165,5.51895240245264e-05,3.27453948044614e-05
8.17656565764938e-05,0.00038503410726989,3.88142928781878e-05,1.55575580521199e-05
5.48958811101843e-05,0.000371861479989378,1.51200492370657e-05,2.77643978559202e-06
2.98976916013772e-05,0.000361943266507582,-1.16936869131286e-05,-5.14842301026277e-06
7.49826475967555e-06,0.000353932401772285,-3.15943349845142e-05,-1.06395524103045e-05
6.00814855147293e-06,0.00034855606249309,-2.98487799950784e-05,-1.65287286064425e-05
3.61084959571657e-05,0.000340032597782171,-2.66411722507635e-06,-2.53080238458424e-05
6.71029130877801e-05,0.000324404258990542,3.08653982964078e-05,-3.81355417844491e-05
7.87615823007573e-05,0.00030796529698165,4.37680657290184e-05,-5.27861782736011e-05
6.61134759255335e-05,0.000299024599732435,2.88707505143869e-05,-6.3503084571529e-05
3.57985517858596e-05,0.000296127813823689,2.62659043823115e-06,-6.46483000265193e-05
1.66177759538755e-05,0.000304377097152299,-1.85401254400469e-05,-5.48206540705694e-05
3.11136264272706e-06,0.000321972389338755,-3.456168952416e-05,-3.71417942659268e-05
-1.70946131405004e-05,0.000341701527935358,-5.14410961130379e-05,-1.66183445759732e-05
-3.35693379383885e-05,0.000359892866605095,-6.6985545069993e-05,1.51571823161423e-06
-3.84449981716274e-05,0.000370407126570173,-7.65172579628495e-05,1.21361893130973e-05
-4.55617931820031e-05,0.000367176554630789,-8.59581207635327e-05,1.17998157670982e-05
-7.4148182520162e-05,0.000357520601601636,-0.000107654169280366,8.27916685367368e-07
-0.000105416781033086,0.000341308137256392,-0.00014428740227755,-1.76274554249213e-05
-0.000144708165210972,0.000313699264150814,-0.000186516136526433,-4.08828038816131e-05
-0.000183296214538587,0.000287258642152467,-0.000227720723675413,-6.72947404027303e-05
-0.000234484686522763,0.000265431419934715,-0.000271579046238232,-9.30665919699294e-05
-0.00027551652643183,0.000245177760432825,-0.00031936978329696,-0.000110981953224555
-0.000304174441347983,0.000239551081630652,-0.000355781019875366,-0.000114627589358634
-0.000310695189875078,0.000253152862379125,-0.000355663113429535,-0.000103505533361917
-0.00026054383877181,0.000274848954370556,-0.000305398931198922,-8.30660868574768e-05
-0.000160074243549957,0.000295257585958098,-0.000214180709648242,-6.05026530553286e-05
-5.08308440942075e-05,0.000315213222218348,-0.000105752420613269,-4.1028650917668e-05
4.70876721792026e-05,0.00033167602608657,-3.83892808588739e-06,-2.62598631733049e-05
0.000132548816952039,0.000344264527813466,7.58600199858796e-05,-1.38211356302841e-05
0.000186276446954992,0.000359106085247164,0.000128528271644625,1.25483805074126e-06
0.000223279012637079,0.000381028674902241,0.000161544911087644,2.28727119478136e-05
0.00025112630433597,0.000409781957255718,0.000189182273951813,5.04340354347516e-05
0.000276756303117055,0.000438332583804881,0.000218261680182773,7.82476255903781e-05
0.000305902976149498,0.000458169010768474,0.000237551154201878,9.76569172486198e-05
0.000295019167364786,0.000460624722279592,0.000226461046743442,0.000101300958277081
0.000241208090854173,0.00045175555060837,0.000177911077431084,8.88895583641131e-05
0.00018067361001215,0.000431525732965811,0.000110397742001624,6.94957414593886e-05
0.000124847896388048,0.000416481519727797,5.3273189255131e-05,5.43044447443874e-05
9.05513817400564e-05,0.000408637548007819,1.96763169252509e-05,4.51330479762817e-05
6.87599223113014e-05,0.000397813343871435,-2.48491061448147e-06,3.40419920634936e-05
4.24861933282729e-05,0.000382399581813787,-3.07061158831296e-05,1.68906682910485e-05
1.10983855186931e-05,0.000366640112795836,-6.24224478945076e-05,1.91637372439566e-06
-4.05311608631111e-07,0.000364339373370372,-7.42887395678797e-05,-6.19482984310955e-07
2.74419800902593e-05,0.000375247024014415,-4.63915995775288e-05,7.56677353135454e-06
9.23991258382276e-05,0.000384473823575605,1.81214158076049e-05,1.73650123600835e-05
0.000170505057007376,0.000393974804519105,9.81012040201158e-05,2.74672942373746e-05
0.000245964541790756,0.000411868119947202,0.000171387652391619,4.36875397099967e-05
0.000296306627768673,0.000432002570152436,0.000222424142092478,6.26438480491615e-05
0.000311529654951671,0.000437331225712968,0.000241452781020137,6.8569661637244e-05
0.000298070925359185,0.000420463110236115,0.000227315704076314,5.19791121352862e-05
0.000262403503799647,0.000392484688310903,0.000189875033360396,2.19435557782955e-05
0.000209379208646966,0.000362348578116213,0.000141897045452259,-7.00672816151231e-06
0.000157833108772821,0.000340580960546789,9.06190440016165e-05,-3.15403925026203e-05
0.000109124190159094,0.000313568133924492,4.47977246388085e-05,-5.46851003242542e-05
9.01460701314253e-05,0.000298297423022832,2.3514022147661e-05,-7.2602467091852e-05
0.000102865702084643,0.000295305269676761,4.10440857537597e-05,-7.8162984835397e-05
0.00013986826776673,0.000295650976637064,8.20150873391866e-05,-7.32610268896714e-05
0.000169169912884826,0.000305175799439895,0.000109707985011091,-6.51867388650921e-05
0.000163280973630009,0.000319874305717606,0.00010654085511673,-5.27279963257852e-05
0.00014427901174301,0.000342655202308607,9.1180134614426e-05,-2.86765725234014e-05
0.00013766289577859,0.000373065493885606,8.63618120391004e-05,3.20753764071434e-06
0.000134134300597566,0.000397193455528823,8.57500648261384e-05,2.64699179565061e-05
0.000115442282881873,0.000402176404129052,6.72740101412011e-05,3.09598738982123e-05
7.09056896511131e-05,0.000394725823088039,2.62255330189605e-05,2.31545047798933e-05
1.87277805046904e-05,0.000382673763196097,-2.33079513551167e-05,1.36176408395712e-05
-3.33428402747417e-05,0.00037438871707849,-7.10633731478116e-05,4.99432045134409e-06
-7.26461453822938e-05,0.000369477294056254,-0.000114104370640972,-1.52859532750097e-06
-0.000107014185608279,0.000371623061396066,-0.000141979379859753,1.27572268975786e-06
-0.000108015543700191,0.000385391735159858,-0.000140300887384924,1.74578661910176e-05
-7.8928475316076e-05,0.000405025506319136,-0.0001122697708515,3.78148812329712e-05
-5.02347976109265e-05,0.000420641924181099,-7.95433236819365e-05,4.96403107560139e-05
-2.57492080777411e-05,0.000422811533380242,-5.64275491821037e-05,5.32314360918879e-05
-9.07182747553751e-06,0.00042257311478693,-3.61628673250679e-05,5.93293789168475e-05
1.58429155256102e-05,0.000440418746496364,-7.70354934566903e-06,7.20164876340701e-05
5.11527091951793e-05,0.000453531769128547,2.45658578746615e-05,8.29952888554858e-05
7.03454059568289e-05,0.000446987178742121,4.26334339887036e-05,8.24808348271423e-05
5.1319602210498e-05,0.000431132342286846,2.9747254124867e-05,6.77927478703913e-05
3.60012075901751e-06,0.000408983254968122,-1.61003758615186e-05,4.07079612495527e-05
-4.76121930844899e-05,0.000372171424160685,-7.53219248432248e-05,4.63571196241263e-06
-8.98242050304535e-05,0.000329899807566393,-0.000117005380733246,-3.20970695895878e-05
-0.000111413008654893,0.000307130831905057,-0.000128999536907786,-5.63908651852795e-05
-0.000112164027223827,0.000306832808663416,-0.000135915864131832,-6.03764782458812e-05
-0.000141990193247211,0.000312471408395255,-0.000173265378052048,-5.16313587953972e-05
-0.000218415273333506,0.000311529654951671,-0.000245771832123829,-5.02599005410449e-05
-0.000304651278534608,0.000290906446630147,-0.000326574943042274,-7.21344821274527e-05
-0.000362050554874572,0.000252258792654204,-0.000392196036499576,-0.000112186520690904
-0.000396204018366576,0.000218641770997153,-0.000433663636043934,-0.000145653046337189
-0.000400269055382553,0.000209319603998637,-0.000433703153699208,-0.000150892196793156
-0.000338459035066309,0.000229895128601499,-0.000366870914413331,-0.00013143983191662
-0.000197315227825357,0.000256621852911821,-0.000238151036020379,-0.000109077963259967
-4.49895885580533e-05,0.000268340126773126,-9.45569038706565e-05,-9.36434456280953e-05
6.04271924750323e-05,0.000289154069969301,2.36729836006528e-05,-6.99137157201574e-05
0.000167298326927324,0.000340282937305149,0.000123243183483485,-2.16425355263012e-05
0.000280904786640691,0.000407135510869951,0.000225939625599613,4.08875147277423e-05
0.000372922442729619,0.000449144867011599,0.00031585638318053,8.99015622120497e-05
0.000400829339076837,0.000470364121816404,0.00035065134927867,0.000111767475807175
0.000378751777336107,0.000481665163139413,0.000318137087625809,0.000115761269653362
0.0003188014220477,0.000475513963431952,0.000250861723714348,0.000113200696660041
0.00025131703921062,0.000461912182683479,0.000183959987498426,0.000103385136691918
0.00019382239543333,0.000445473220674587,0.000125571012219201,8.3141167319234e-05
0.000148439416196311,0.000420236612572468,7.30037854034909e-05,5.58143222187188e-05
0.000110590464507965,0.000385105632847883,3.12190443862676e-05,2.42222074156684e-05
8.62956098494297e-05,0.000346827527691575,2.67154605606363e-06,-1.32425965606816e-05
6.19769133315631e-05,0.000312852878144555,-2.18582922176992e-05,-5.13075073459823e-05
3.96132492788583e-05,0.000289130228109969,-4.71911617342189e-05,-7.34134493156302e-05
3.53217145992347e-05,0.000291752832636406,-6.04871969998973e-05,-6.9356472788411e-05
4.91857558003518e-05,0.000312840957214889,-4.75184848960838e-05,-4.9787663179286e-05
8.13126612492002e-05,0.000330674667994658,-1.41349265771072e-05,-3.21096184527908e-05
0.000122356422087933,0.000345814248669997,2.0860638411784e-05,-1.78150110392868e-05
0.000156736383243584,0.000364911577994321,4.92612784333657e-05,4.02241215986475e-06
0.000185942660924355,0.000397956395027423,7.81209698742893e-05,3.43825390675827e-05
0.000217509282678919,0.000423121477551548,0.000112132304945024,5.90443470836462e-05
0.000255274787859606,0.000428175951729772,0.000141746043835511,6.66791347710766e-05
0.000269317643005707,0.00042382481240182,0.000152769325312531,6.09389254753872e-05
0.000256836429645802,0.000416243101134485,0.000143151664288443,5.14252858199903e-05
0.000240767016456545,0.000403559231970264,0.000125619321213367,4.17284366875214e-05
0.000234043612125135,0.000393366837106159,0.000113330067072368,3.07600820927315e-05
0.000226092352038166,0.000383353256187037,0.000105716254386611,1.88729097321183e-05
0.000209486497013956,0.000370156787047195,9.15779223487364e-05,7.32019413216512e-06
0.000186204921376998,0.00035767557368729,6.50723735780942e-05,-4.37154155078603e-06
0.000155162820527722,0.000347006341636559,3.3238565324976e-05,-1.65918843224875e-05
0.0001272916869695,0.00033570530031355,6.48979425444753e-06,-2.78586814637676e-05
0.000109124190159094,0.000325405617082454,-1.10023008623437e-05,-3.6697332847352e-05
0.000103497511356921,0.000320076961521921,-1.67750082608747e-05,-4.19035787185343e-05
0.000115060813132573,0.000323927421803917,-4.2142536409892e-06,-3.98347294628691e-05
0.000147390374385737,0.000335502644509235,2.8120871579834e-05,-2.65331122076233e-05
0.000180852423957135,0.000356388113283402,6.42999813730478e-05,-5.12372028750104e-06
0.000193941604729986,0.000375914596075689,7.93584132935558e-05,1.4139725631327e-05
0.000177550326439758,0.00038791897224897,6.22726516823113e-05,2.53125953134071e-05
0.000137007244646981,0.000394558930072721,2.48833193711489e-05,3.36601515077373e-05
9.69529209704948e-05,0.00040615799463737,-1.21927035592964e-05,4.57562796090321e-05
6.97493594735479e-05,0.000417637849905363,-3.72024553815102e-05,5.64937941775918e-05
5.38468392996096e-05,0.000414538408192301,-5.21248305752807e-05,5.35398673396351e-05
3.69906447524217e-05,0.000393557571980808,-6.68119004409586e-05,3.41445666356062e-05
8.09431124295659e-06,0.00036948921498592,-8.91089627931876e-05,1.01014139578586e-05
-2.05159199545336e-05,0.00035345556458566,-0.000116834585780069,-6.29033201652603e-06
-4.36425235058381e-05,0.000343215486002891,-0.000140632260998298,-1.55009267068488e-05
-6.74963037667455e-05,0.000332391281866508,-0.000156825303022964,-2.65697993792102e-05
-8.66770795987296e-05,0.000312900561863217,-0.000170908736312569,-4.42367866307523e-05
-9.55224094106203e-05,0.000291991251229718,-0.000182470496117867,-6.50277207377692e-05
-9.38534792574334e-05,0.000276696698468727,-0.000176108928543467,-8.28597338702977e-05
-6.67095224088146e-05,0.000262868420056607,-0.000140343833139109,-9.2216743865922e-05
-1.53303155499885e-05,0.000267636791922855,-8.96710588164143e-05,-8.69466231752768e-05
2.15053571167801e-05,0.000294768827841808,-5.15735777832336e-05,-6.37739491869229e-05
3.17811984885453e-05,0.000324583072935526,-3.29756556414654e-05,-3.01467948738402e-05
4.82559232864334e-05,0.00035048725309892,-1.56774810432544e-05,-2.7098821083339e-06
7.41601034498276e-05,0.000362622759498522,1.45330812621902e-05,7.51542926835878e-06
0.000109457976189731,0.000360465071229045,5.2040856382006e-05,5.83688366305696e-06
0.000142192849051526,0.000358605406201208,8.82782144449983e-05,5.56444552820171e-06
0.000173830996384084,0.00036412479663639,0.000125109710445408,1.19688834515884e-05
0.000208425534273716,0.000372958205518616,0.000161164113197427,1.99642441956802e-05
0.000224900259071604,0.000377702735525533,0.000180444983379815,2.50557905932569e-05
0.000209820283044593,0.000379431270327048,0.000168900719998634,2.85475625558346e-05
0.000170481215148045,0.000383090995734393,0.000133635607140386,3.13134683799179e-05
0.000128746040388706,0.000380694888871603,9.3783931846567e-05,3.04223299272065e-05
9.27567537281962e-05,0.000376200698387664,5.90566249263747e-05,2.55613635275903e-05
5.61594996547401e-05,0.000373995326399525,2.76414996418764e-05,2.30215857565712e-05
2.52842918207819e-05,0.000377821944822189,-1.37296237357785e-06,2.89424263695256e-05
8.70227865590326e-07,0.000391578697656315,-2.52111055026624e-05,4.22210176046982e-05
-2.22563756857142e-05,0.000406301045793357,-4.38728332169403e-05,5.69539700482791e-05
-4.00424027468206e-05,0.00041748287781971,-6.02196058690062e-05,6.769612438737e-05
-5.69343600830054e-05,0.000417637849905363,-7.53923190708161e-05,6.97588818994893e-05
-7.20500988990127e-05,0.000407850766649888,-8.96093599901225e-05,6.00230158009802e-05
-9.0909009630025e-05,0.000390625023283066,-0.000103532280695161,4.19748025076283e-05
-0.00010126829750945,0.000374186061274174,-0.000114249462718062,2.50239260664966e-05
-0.00010194779050039,0.000361418745602294,-0.00011616380875833,1.38581543270712e-05
-0.000103402143919596,0.000348353406688774,-0.000111381341837304,3.0243072948686e-06
-0.000104880339198133,0.000336480160741816,-0.00011167613218613,-1.32498649040873e-05
-0.000112676627199449,0.000318217296494084,-0.000122710309597805,-3.1857593936111e-05
-0.00012489558010671,0.000295865553371045,-0.000132904663487707,-4.75861989421192e-05
-0.000123095519727201,0.000285863893381589,-0.000125186326962715,-6.16707287118739e-05
-8.99672561864409e-05,0.000277411954248664,-9.31872433439648e-05,-7.38204110038497e-05
-3.17335147698828e-05,0.000274336354394934,-4.02931089208099e-05,-7.26293337750734e-05
2.8645993986487e-05,0.000295722502215058,2.60394285309986e-05,-4.8723388325678e-05
8.62002424121047e-05,0.000333952923652704,8.86555513155682e-05,-1.55787228369542e-05
0.000124955184755038,0.000349664708951992,0.000120986136407545,-1.26290845941448e-06
0.000115120417780901,0.000329446812239099,0.000109287444903518,-1.59122802321869e-05
6.77943270083861e-05,0.00030747653886536,6.97875253037419e-05,-4.04758002432818e-05
2.82049195888591e-05,0.000297915953273532,3.08744102655936e-05,-5.20312308820846e-05
9.02414375687502e-06,0.000302410143757471,4.43391804408526e-06,-4.70219284943196e-05
-9.02414375687502e-06,0.000316095371013604,-1.17680601447701e-05,-3.33249035762941e-05
-1.65581713055474e-05,0.000333237667872767,-1.25626509509787e-05,-1.42136830918141e-05
1.16586692129772e-05,0.000358378908537561,1.21924221477013e-05,7.46532031518824e-06
5.91039692821484e-05,0.000372731707854969,5.52522367188074e-05,2.01628288177911e-05
9.33170374224804e-05,0.000363516829223444,9.28921467689605e-05,1.44891229435403e-05
0.000110149390110337,0.000348341485759108,0.000111943831028821,-1.39534031219722e-06
0.000118505961805937,0.000342297574418639,0.000119643392418557,-1.09662862140226e-05
0.000128614910162384,0.000342786332534929,0.000123803636898929,-1.11505583453773e-05
0.000121843822112311,0.000338530560644302,0.000120636910505811,-1.18127085395049e-05
0.000104701525253148,0.000337135811873425,0.000108029864770667,-1.53575027706718e-05
9.79661999920726e-05,0.000344109555727813,9.47349388280163e-05,-1.19044974958924e-05
9.30428560401711e-05,0.00035778286205428,8.78678719552506e-05,2.99764727801208e-06
8.29696704727215e-05,0.000373232386900925,8.37698902199686e-05,2.01300920879584e-05
8.02040147902974e-05,0.000387454055992011,7.86220758863594e-05,3.16064511382091e-05
8.08119822032441e-05,0.000399267697290641,7.58449393480668e-05,4.1572244760417e-05
7.89880799644041e-05,0.000410950208362949,7.48219624979619e-05,5.38940025221399e-05
6.60419503475398e-05,0.000416862989477097,6.39355866483966e-05,6.01958100133679e-05
4.03881097071236e-05,0.000409770036326053,3.49856110493951e-05,5.17203656120582e-05
1.74045573118065e-06,0.000396835827638854,-3.39273242385154e-06,3.61456216682835e-05
-2.8395654463509e-05,0.00038955213961316,-3.49638752390507e-05,2.97784547412993e-05
-4.6539309414584e-05,0.000395286106782323,-5.21333648242956e-05,3.57196024724883e-05
-5.06520301492232e-05,0.000403153920361633,-5.80384168260786e-05,4.16375040934988e-05
-5.27143509813756e-05,0.000401639962294099,-6.16300961378233e-05,3.87106665969958e-05
-6.90937083419387e-05,0.000394618534721049,-7.67157678418452e-05,3.08629032401765e-05
-0.000105071074072783,0.000384700321239252,-0.000115752800837899,2.28970639777656e-05
-0.000164234648003259,0.000376081489091008,-0.000175769907864561,1.12601894750945e-05
-0.000227665914754028,0.000360584280525701,-0.000236878201668892,-6.81594028007976e-06
-0.000265741364106021,0.000341129323311408,-0.000280091353470228,-2.36471941389062e-05
-0.00028251411214555,0.000336742421194459,-0.000298579282474232,-2.92701913699495e-05
-0.000277102010077358,0.000344288369672797,-0.000288276540575658,-2.4674184581231e-05
-0.000224995626508929,0.000350213071716611,-0.000241912484878956,-1.91906690104656e-05
-0.000140321263094024,0.000349414369429014,-0.000162199697081652,-1.79547826648498e-05
-5.36918672139565e-05,0.000351500532120498,-6.89147079644774e-05,-1.93698647413626e-05
3.76582168136964e-05,0.000349545499655336,1.86229172938336e-05,-2.22493634922064e-05
0.000122177608142949,0.000343489667385201,9.60675476058054e-05,-2.70110363577766e-05
0.000184822093535786,0.000341987630247332,0.000161012348857481,-3.10351783817908e-05
0.000218939794238793,0.000340938588436758,0.000199451985606945,-3.19178961024989e-05
0.000233447565641854,0.000338327904839987,0.000202012642177772,-3.55815106014629e-05
0.000214684022348167,0.000324046631100573,0.000183667883421529,-5.09903658915592e-05
0.000193488609402693,0.00030124189265024,0.000168297272880166,-7.3633373793853e-05
0.000193297874528043,0.000290989893137806,0.000159632482560582,-8.41394190868959e-05
0.000184345256349162,0.000308489817886938,0.000146056205124406,-6.98256623336675e-05
0.000162541875990741,0.000335943718906863,0.000128656676464294,-4.04794222935482e-05
0.000158143052944127,0.000360643885174029,0.000121741637419754,-1.58257108760643e-05
0.000169014940799173,0.000376451037910642,0.000124486634254804,-3.72398828208363e-06
0.000155818471659331,0.000379788898217016,0.00011401738863691,1.12640594840033e-06
0.000118529803665269,0.000381445907440538,7.43000282764988e-05,3.19761006334006e-06
6.43491783350216e-05,0.000383710884077006,1.66621346105813e-05,3.03667370044382e-06
1.52230271829979e-05,0.00038639309325177,-3.50120496704449e-05,6.43563153749836e-06
-1.33156784364985e-05,0.000405311608631111,-6.64267458777369e-05,2.36019192536055e-05
-2.32338919182951e-05,0.000434434439804223,-7.50837988853142e-05,5.44404288104323e-05
-6.80685083906953e-06,0.000463748005851984,-6.51897754315541e-05,8.27898238165309e-05
1.14202506196648e-05,0.000474607972777365,-4.94017893335977e-05,9.13110087881226e-05
1.48892411523605e-05,0.000460147885092967,-4.40480640100451e-05,7.8570318830774e-05
1.16586692129772e-05,0.00043947699305278,-5.2247289750577e-05,5.79403306055524e-05
1.09553343627056e-05,0.000424993063509051,-5.91161705908199e-05,4.29640504360695e-05
1.53899201983166e-05,0.000421094919508393,-5.1377149828745e-05,3.7295479654677e-05
3.3330919345076e-05,0.000420141245135143,-3.42147267315029e-05,3.68246438008632e-05
5.70654903093273e-05,0.000418055082443659,-2.16532137849575e-05,3.75012306445633e-05
5.77449833002676e-05,0.000421476389257693,-1.90879195878657e-05,3.89331411875159e-05
4.63485745399341e-05,0.000425672556499991,-2.51729690771099e-05,3.96954333871545e-05
3.86714958352742e-05,0.000412964845476439,-4.36542192361948e-05,3.14909506030688e-05
7.97510194630038e-06,0.000384199642193296,-8.01226863807484e-05,4.71493211278943e-06
-4.84108953720865e-05,0.000348913690383058,-0.000128235048051309,-3.63096098215105e-05
-8.76784376906417e-05,0.000314152259478108,-0.000169944749392403,-7.00713606162142e-05
-9.79900418514038e-05,0.000300693529885622,-0.000191561336084108,-7.83358404809887e-05
-9.99808371055625e-05,0.000314545650157073,-0.000192710445933488,-6.67707250919748e-05
-9.24348886272245e-05,0.000327980537890228,-0.000177572606772396,-5.57198661738402e-05
-5.16057045224729e-05,0.000330019016863049,-0.000144104385001825,-5.23843262405316e-05
1.29103668278674e-05,0.000333750267848388,-8.77392231717511e-05,-4.42637436060961e-05
8.11576891635471e-05,0.000358891508513183,-1.40118156261832e-05,-2.17297758363286e-05
0.000150692471903114,0.000388312362927935,5.8781257539073e-05,6.3422716716046e-06
0.000213134301491636,0.00040673019926132,0.000113749010528716,2.60331648664054e-05
0.000253689304214078,0.000411987329243858,0.000149976685296489,3.60982500026673e-05
0.000274419800902593,0.000421416784609364,0.000176783191614875,4.23147673957867e-05
0.000291192548942122,0.000423872496120482,0.000193614358212186,4.23053365206526e-05
0.000286698358458183,0.00040357115289993,0.000186248242376285,2.83332327859102e-05
0.000256812587786471,0.000378441833164801,0.000150206402760646,2.27507249351562e-06
0.00020716191572916,0.000354456922677572,0.000107975890914002,-2.30576658793959e-05
0.000183689605217552,0.000338578244362965,8.78575261687867e-05,-3.79279739459801e-05
0.000192773353622756,0.000331020374954961,8.83874660518441e-05,-4.36357128105625e-05
0.000183498870342903,0.0003271579937433,7.96709121658274e-05,-4.64831020035293e-05
0.000139212616635121,0.000324523468287198,4.23252340922443e-05,-4.97959494150901e-05
8.59975866077892e-05,0.000322616119540698,-9.5233778768006e-06,-5.12360972685588e-05
5.27381928407069e-05,0.000329697151762077,-4.82263493925386e-05,-4.23234586393362e-05
4.13775468693701e-05,0.00035922529454382,-5.99048402157936e-05,-1.24173229344493e-05
4.67538861485652e-05,0.000409078622405447,-4.3765850239203e-05,3.89602307566977e-05
9.08255631223656e-05,0.000464832810451556,-8.27890727951384e-07,9.3232567846627e-05
0.000157976159928808,0.000493955641624668,5.99139120757782e-05,0.000123712300520952
0.000203621399618471,0.000485003023445786,0.00011273909942602,0.000118483181812797
0.000215816510666401,0.000457358387551211,0.000131079912133612,8.85870595363391e-05
0.000198972237048878,0.000422549272927598,0.00011250134487834,5.3553722663809e-05
0.000163829336394628,0.000390303158182094,7.65767406589707e-05,2.48325477126238e-05
0.000122082240705624,0.000369274638251939,3.94558363355463e-05,4.18051593412899e-06
7.74622009672046e-05,0.000356042406323099,2.24973916845406e-06,-9.89623020721869e-06
4.05430817927767e-05,0.000345134755679056,-3.63470080953705e-05,-1.97820586266576e-05
6.6757206127477e-06,0.000334358235261335,-7.01624842490673e-05,-2.87666273744377e-05
-2.34484686522763e-05,0.000324547310146529,-9.31710806319828e-05,-3.81941793859022e-05
-4.14371515176983e-05,0.000316774864004544,-0.000106555911347462,-4.59594529233048e-05
-4.6634676851909e-05,0.000310647506156415,-0.000111343537930455,-5.04771471895949e-05
-3.76582168136964e-05,0.000307774562107,-0.000101242234106078,-5.38326432900565e-05
-1.46508225590481e-05,0.00030238630189814,-7.11652928051878e-05,-5.81321845148755e-05
2.2482873349361e-05,0.000296628492869645,-3.0040768368239e-05,-6.08910082651306e-05
5.31315835196724e-05,0.00030295850652209,2.69207376970285e-06,-5.73755606184706e-05
6.50167503962964e-05,0.000313675422291483,1.49068155248773e-05,-4.65924581804074e-05
5.28693230670287e-05,0.000321733970745443,1.15675155939703e-05,-3.26722152221652e-05
4.24981142579385e-05,0.000336122532851847,4.07954665346713e-06,-2.1372367745707e-05
3.081560318563e-05,0.000341725369794689,-6.14077324626616e-06,-1.68770822917252e-05
6.98566478405385e-06,0.000335252304986257,-2.62860861160481e-05,-1.99437944635765e-05
-2.54511848361006e-05,0.000328195114624209,-5.33829325831115e-05,-2.61896586870407e-05
-4.41908862704567e-05,0.000327003021657647,-6.6947983394124e-05,-2.73358136721949e-05
-2.84791009711683e-05,0.000338923951323268,-5.09598019724547e-05,-1.74905400493207e-05
0,0.000355172178457509,-1.87359535009108e-05,1.32935754078066e-06
1.02639204420996e-05,0.000372278712527675,-1.31371584318772e-06,2.14414513382904e-05
7.51018568934117e-07,0.000390374683760088,-8.99026359665154e-06,3.65389232057068e-05
-1.07645994880557e-05,0.00039924385543131,-1.90512760816588e-05,4.47110505000346e-05
-4.91142302223581e-06,0.000396811985779523,-7.77561997190649e-06,4.6065245095799e-05
1.90138828166653e-05,0.000391232990696012,2.09547938141641e-05,4.13993834106404e-05
4.84108953720865e-05,0.000387561344359001,5.04763517681355e-05,3.41747655133064e-05
7.29322476942687e-05,0.000381755851611844,7.94350769685555e-05,3.05840896501172e-05
0.000103890902035886,0.000384402297997612,0.00011552453963585,3.50515934166011e-05
0.000139093407338465,0.000396919274146514,0.000149850662198533,4.61349513492983e-05
0.000145280369834922,0.00040702822250296,0.000160693825739055,5.77315073637703e-05
0.000122058398846292,0.000414812589574611,0.000142889246506478,6.38954382949288e-05
9.51409396613204e-05,0.000412571454797474,0.000113582991991953,6.27531805622828e-05
6.38723411483968e-05,0.000404322171468864,8.56952968094013e-05,5.71578207641073e-05
2.53081336801132e-05,0.000401401543700787,5.35101509427939e-05,5.13941472500587e-05
-1.82628642477312e-05,0.000396025204421592,8.75094281805637e-06,4.55176780700571e-05
-7.32660337249061e-05,0.000381219409776891,-4.7107381178832e-05,3.36691271964571e-05
-0.000145113476819603,0.000359010717809839,-0.000112530586561948,1.14169416088759e-05
-0.000221300138312586,0.000334668179432641,-0.000188283777891111,-1.51958089611142e-05
-0.000292670744220659,0.000315952319857616,-0.000259075344156057,-3.33395337549994e-05
-0.000322592277681367,0.000308072585348641,-0.000291240303838427,-3.91699747212616e-05
-0.000304305571574305,0.000303792971598683,-0.0002660664381772,-4.47528872615859e-05
-0.000240969672260861,0.000285542028280617,-0.000204409359719471,-6.31674724037432e-05
-0.000178289424079026,0.000259852424851204,-0.000142465214145721,-8.96607634615168e-05
-0.000126481063752238,0.000243055834952345,-9.22345347883311e-05,-0.00010528057825036
-8.12530566008721e-05,0.000248384490512877,-4.12325310830654e-05,-9.90118557296068e-05
-1.98006641745963e-05,0.00027214290333646,1.85021104075405e-05,-7.84552202190869e-05
5.00798255252734e-05,0.000292682665150324,8.10328941917217e-05,-5.66620296922335e-05
0.000102078920726712,0.00031180383633398,0.00014124600395059,-3.67496117791615e-05
0.000161385545813176,0.000334179421316351,0.000197957788140979,-1.51853116491699e-05
0.000209510338873287,0.000357043764415012,0.000240714223687011,6.06227601522527e-06
0.000217211259437278,0.00036929848011127,0.000250815034935644,1.94254052959536e-05
0.000187337409695232,0.000372576735769316,0.000220669086902239,2.23795272195175e-05
0.000132727630897023,0.000372517131120988,0.000161384937850942,2.08659780419522e-05
6.1726573808585e-05,0.000371444247451082,8.98365728156411e-05,2.08937678516827e-05
-9.84668790380287e-06,0.000373971484540193,1.88756537077894e-05,2.17488030062915e-05
-6.4086917882378e-05,0.000372540972980319,-4.10816753174e-05,1.94164282057917e-05
-0.000106620794929313,0.000364756605908668,-8.54207710667024e-05,1.33611818834463e-05
-0.000144803532648297,0.000361490271180288,-0.000121657206644186,7.84032150694607e-06
-0.000174748907968337,0.00036230089439755,-0.000157652305181712,8.08889283329497e-06
-0.000192701828044762,0.000370872042827132,-0.000180997167267549,1.60472075840931e-05
-0.000181829940189716,0.000382852577141081,-0.000166269113125679,2.83552158220336e-05
-0.000119638450124171,0.00039224626971759,-0.000108851552422214,3.80241875402912e-05
-4.00781655358175e-05,0.000398314022917391,-3.70071472184013e-05,3.94564025862664e-05
1.19566924546178e-05,0.00038878920011456,1.71578140605696e-05,3.26452057337278e-05
4.40001513958068e-05,0.000378954433140423,4.56962039346807e-05,2.25609116322668e-05
6.01887738817199e-05,0.000374114535696181,5.72537820983178e-05,1.54144731573995e-05
6.42061271790342e-05,0.000375735782130705,5.79146651984057e-05,1.58120953593724e-05
6.12854994109571e-05,0.000384926818902899,5.21849050288436e-05,2.49824939236607e-05
5.97834622730888e-05,0.000397706055504445,4.97813380983063e-05,3.91549385407204e-05
7.23481221406533e-05,0.000412654901305133,5.50914441063433e-05,5.0789585806707e-05
7.41601034498276e-05,0.000416982198773754,5.66627207173539e-05,5.39878247938841e-05
6.20842016985537e-05,0.000410759473488299,4.06079039050086e-05,4.84983522102876e-05
3.48806402016068e-05,0.000398898148471007,8.8122118910045e-06,3.70921726567002e-05
-1.38282784121202e-06,0.000385248684003871,-2.77921440793057e-05,2.03889278762977e-05
-3.56078169112096e-05,0.000361669085125273,-6.66873930065213e-05,-3.59927583328958e-06
-7.56740615173615e-05,0.000330007095933383,-0.000110325332406621,-3.57370003821684e-05
-0.00011212826443483,0.000291025655926803,-0.000150871489268009,-7.3278196321324e-05
-0.000138366230628862,0.000256836429645802,-0.000174245565482797,-0.000109901918971336
-0.00013496876567416,0.000232625021494926,-0.000177541123903374,-0.000137166314182515
-0.000117623813010681,0.000217652333834906,-0.000168715039677775,-0.000148697537705963
-0.000108408934379156,0.000222003473162858,-0.000150957779213604,-0.000145269131059969
-7.458925691779e-05,0.000237369551501843,-0.000121658139952733,-0.000132965448814555
-2.70247475519626e-05,0.000255930438991215,-8.53639707201195e-05,-0.000113807972139981
3.03983706473333e-06,0.000287938135143407,-5.127881377938e-05,-8.23817885741137e-05
3.39031239690258e-05,0.000332212467921523,-1.59006747182316e-05,-3.66066594780797e-05
9.65714512211949e-05,0.000382149242290809,3.54347461306764e-05,1.18744002265811e-05
0.000166368494413405,0.000420129324205477,0.000103837183083551,4.54151229870263e-05
0.00022501946836826,0.000426995779692875,0.000167388802443953,5.79290125858183e-05
0.000264501587420797,0.000428712393564724,0.000204026993110893,5.87586992756578e-05
0.000278961675105195,0.000433313872415654,0.000213526587875026,5.95992480132792e-05
0.000274300591605937,0.000437831904758924,0.000210147810276699,6.4167772403898e-05
0.000267827526797505,0.000440549876722686,0.000203898639365934,7.11334879993467e-05
0.000259923950429198,0.000451278713421745,0.000197147930774287,7.95558751856825e-05
0.00025746823891808,0.000461494950145182,0.000190503960225075,8.78134262848116e-05
0.000248467937020536,0.000464761284873562,0.000181861204332369,9.20702446869222e-05
0.000227987779855,0.000459778336273333,0.000164860583136844,8.94840518895869e-05
0.000200319302101094,0.000451016452969101,0.000136502149313733,8.04395470231738e-05
0.000168156633863248,0.000440359141848036,0.000102404179337289,6.64413319695237e-05
0.000133800514566929,0.000420546556743774,6.8889485800987e-05,4.93103810050287e-05
9.64880047135356e-05,0.000401628041364434,3.56620354399752e-05,3.30281794999575e-05
6.26444853928378e-05,0.000392556213888896,2.56435862674858e-06,2.14624676809077e-05
4.01735329731424e-05,0.000383949302670318,-2.36443978756784e-05,1.27454428084548e-05
2.08973897038334e-05,0.000370514414937163,-3.85212547894784e-05,1.0255766487034e-06
4.51803234327032e-06,0.000353527090163653,-5.04193988104623e-05,-1.40029333297847e-05
-1.46150597700512e-05,0.000343966504571825,-7.08459440894749e-05,-2.46014873966326e-05
-3.97443795051801e-05,0.000344395658039788,-9.7335656540074e-05,-2.52204637502104e-05
-6.47187271546559e-05,0.000345981141685315,-0.000117088980666227,-2.0478066866162e-05
-7.97629403926695e-05,0.0003461599556303,-0.000126472596515132,-1.90533099702726e-05
-8.41856052986148e-05,0.000343179723213895,-0.000134902225983485,-2.36531641539526e-05
-9.66668186585199e-05,0.000335085411970938,-0.000147715485308054,-3.11813381071368e-05
-0.000117480761854694,0.000324070472959904,-0.000157344959794508,-3.91786565465804e-05
-0.000115954882857495,0.000316154975661932,-0.000156423960763784,-4.69800535564612e-05
-0.000101590162610421,0.000311589259599999,-0.000147706722912437,-5.24071594712805e-05
-9.52839908173079e-05,0.000310981292187052,-0.000131205788722162,-5.18466937105784e-05
-5.78880344562551e-05,0.000316882152371535,-9.1317729815929e-05,-4.31237320400937e-05
2.07424176181804e-05,0.000334537049206319,-1.35194835054541e-05,-2.60312573015153e-05
0.000120079524521799,0.000359916708464426,8.62882752963212e-05,-2.01018574122166e-06
0.000193393241965368,0.000381898902767831,0.00016505660537908,2.41055514545055e-05
0.000217473519889922,0.000402498269230024,0.000193237172058877,4.44659716133637e-05
0.000209975255130247,0.000412535692008477,0.000182710091953329,5.37602705069953e-05
0.000189352046808722,0.000410819078136628,0.00016559807576867,5.32117825755036e-05
0.000173997889399403,0.000402522111089355,0.000154142164382191,4.72153814522392e-05
0.000153875360123835,0.000394415878916733,0.000135147738091331,3.86876262485554e-05
0.000117099292105394,0.000386941456016389,9.93604532838017e-05,3.00517639158328e-05
7.43508383244776e-05,0.000378894828492095,5.75392535276608e-05,2.48510172259318e-05
3.65614912844593e-05,0.000376772903011614,2.20202016961853e-05,2.35822895682094e-05
-1.15633017756523e-06,0.000374972842632105,-1.23754674445257e-05,2.00882079130247e-05
-4.55617931820031e-05,0.000361180327008982,-5.7912618268737e-05,7.20900921921844e-06
-0.00010137558587644,0.000337851067653362,-0.000113426204803688,-1.4176740380831e-05
-0.000155699262362675,0.000317585487221806,-0.000164810751756293,-3.51075146116751e-05
-0.000190639507212609,0.000305855292430835,-0.000199058656336383,-4.70356932887791e-05
-0.000200283539312097,0.000304663199464273,-0.000207664776899928,-4.80247036114362e-05
-0.000175178061436299,0.000309753436431493,-0.000184443388937365,-4.23211838580771e-05
-0.000126409538174244,0.000313293952542183,-0.000135631667308364,-3.70665990115018e-05
-8.50677540938708e-05,0.000315821189631295,-8.87797915315444e-05,-3.7809463155625e-05
-6.66976014791489e-05,0.000309574622486509,-7.35385045337489e-05,-4.35115763488491e-05
-7.75218056155327e-05,0.000302565115843124,-8.83616697830451e-05,-4.68677483079333e-05
-8.88109260088757e-05,0.000309717673642497,-9.75541797420627e-05,-4.25306314829694e-05
-6.48140945919808e-05,0.000322282333510061,-6.66018902514138e-05,-3.32774330083174e-05
1.72376642964878e-05,0.000325512905449444,6.32005010497929e-06,-2.44918505188426e-05
0.000108420855308822,0.000336635132827469,9.41000742632271e-05,-1.48618369650604e-05
0.000171613703466279,0.000358045122506924,0.000165039476264386,1.96333763009906e-06
0.000208628190078031,0.000379622005201698,0.000201178043013066,2.6747846878569e-05
0.000219881547682378,0.000401639962294099,0.0002039513062342,5.04860252390153e-05
0.000202906143838533,0.00041816237081065,0.000187629670267283,6.13008525053052e-05
0.00017307997781515,0.000406992459713963,0.000160708167653441,5.21092723253205e-05
0.000125503547519657,0.000375163577506755,0.000113196092460381,2.26693243109477e-05
5.37753137216159e-05,0.000337290783959078,3.30719243355985e-05,-2.01981490533575e-05
-4.31656863192133e-05,0.000293767469749896,-6.41291953549496e-05,-6.3267685185183e-05
-0.000121355063996021,0.000261378303848404,-0.000138957465270656,-9.27881395778162e-05
-0.000150394448661473,0.000255632415749575,-0.000169246704516965,-0.000102492968372994
-0.000147509583682393,0.000264871136240431,-0.000172728948310913,-9.42035160576358e-05
-0.000147175797651756,0.00028510095388299,-0.000177092411382372,-7.18591851276693e-05
-0.000160133848198286,0.000317680854659131,-0.000182094180837544,-4.02442035710744e-05
-0.000146281727926834,0.000351560136768826,-0.000169332496727976,-9.6419719292279e-06
-0.000103127962537286,0.000365614912844593,-0.000139849247432206,6.16436178161728e-06
-8.51750424608613e-05,0.000361180327008982,-0.000118178779920139,2.06548295786759e-06
-9.08136421927e-05,0.000350713750762567,-0.000116744344470768,-1.1382173916343e-05
-8.2135205396128e-05,0.000343656560400519,-0.000115080224762748,-1.7459773371804e-05
-4.13775468693701e-05,0.000353527090163653,-8.32128396944159e-05,-8.14400614625224e-06
2.0849705985171e-05,0.000374984763561771,-1.54271640156309e-05,1.27870258978776e-05
9.80138837107351e-05,0.000400769734428509,6.63089637406175e-05,3.7767152645611e-05
0.000175488005607605,0.000423967863557807,0.000134831164773342,6.16303375141388e-05
0.000220465673235993,0.0004453301695186,0.000176319407654187,8.12739511384352e-05
0.000230789198326421,0.00045809748519048,0.000191619488722564,9.43952562377248e-05
0.000227189077567403,0.000463533429118003,0.000188273647447663,0.000100182176397992
0.000216174138556369,0.000463223484946697,0.000173302277644328,9.93494127375278e-05
0.000195503246516183,0.00045886042468908,0.00015035683015946,9.3034907172591e-05
0.000165092954939184,0.000446426895047837,0.000120591568271745,8.27159820058892e-05
0.000125598914956982,0.000433957602617598,8.47672535207101e-05,7.05959178960889e-05
8.72969679413419e-05,0.00042526724489136,4.54409791634501e-05,5.88483398267269e-05
5.90801274228172e-05,0.00041402580821668,9.72167976214517e-06,4.93492152567964e-05
3.43441983666538e-05,0.000408375287555175,-1.06739151200245e-05,4.47635668262016e-05
3.18646449962047e-05,0.000412035012962521,-7.10720217245606e-06,4.70525680929825e-05
5.91993367194734e-05,0.000417566324327369,1.61824391240187e-05,5.22928927561713e-05
9.48667582790111e-05,0.00041413309658367,4.45906588622691e-05,4.99186148739546e-05
0.000110697752874956,0.000396692776482867,6.80518442746166e-05,3.22067915842212e-05
0.000123512752265498,0.000367271922068114,8.81216362737647e-05,4.05868042060292e-06
0.000152921685750585,0.000344073792938816,0.000107059756981083,-2.14401916858801e-05
0.000164294252651587,0.000326180477510719,0.000117834181227334,-3.76300009713524e-05
0.00015043021145047,0.000312852878144555,0.000113193343570879,-4.95334958339765e-05
0.000136280067937378,0.000300586241518631,9.92060414825238e-05,-6.34036815531993e-05
0.000130009658933262,0.000287055986348151,8.88452709881328e-05,-7.71297790169813e-05
0.000126075752143607,0.000277030484499364,8.32562416850795e-05,-8.49399016487252e-05
0.000104868418268467,0.000276362912438089,6.9685977482039e-05,-8.62201322999712e-05
7.13944477674036e-05,0.000279831902970785,3.98865991276524e-05,-8.3137200699123e-05
4.33206584048664e-05,0.000289404409492279,2.21244816235267e-06,-7.30094428052086e-05
8.70227865590326e-06,0.000309991855024806,-2.81104266066895e-05,-5.17742605911526e-05
-1.43527993174076e-05,0.000336647053757134,-4.49525681523253e-05,-2.49986603429822e-05
-2.31504454106358e-05,0.000355434438910153,-5.42714892377219e-05,-6.44609700576015e-06
-3.00288218276991e-05,0.00035941602941847,-6.58077826801301e-05,-2.39976099148652e-06
-5.22375137947508e-05,0.000356185457479087,-8.53410827716864e-05,-4.97718799545991e-06
-8.43405773842679e-05,0.000355219862176172,-0.000112081928570579,-5.64985692565181e-06
-0.000111222273780243,0.000354230425013925,-0.000139810699765679,-7.39472453228879e-06
-0.000127625473000137,0.000346255323067625,-0.000160457292815526,-1.51935024981111e-05
-0.000138449677136521,0.000339996834993174,-0.000167721382822301,-2.11951421987682e-05
-0.000132238872780733,0.000347483178823184,-0.000158520702867255,-1.23744954570188e-05
-0.000106596953069982,0.000371301196295094,-0.000133883361428822,8.01364548636239e-06
-7.06195873391382e-05,0.000381445907440538,-9.98883237836959e-05,2.02514957572285e-05
-3.52978727399035e-05,0.000374341033359828,-6.41021965328982e-05,1.39027652684662e-05
-2.53915801877725e-06,0.000364708922190006,-2.79106660036083e-05,2.61331321874751e-06
3.96251702085239e-05,0.000370311759132848,1.38906699226338e-05,5.79236842534591e-06
9.100437706735e-05,0.000384807609606243,6.16088215430444e-05,2.42074071417743e-05
0.000131440170493136,0.00040482285051482,0.000103214499452974,4.31805605389292e-05
0.000151598462557701,0.000420105482346146,0.000125246881605752,5.35275694039594e-05
0.000153410443866875,0.000421071077649062,0.000128126893580866,5.77565045647344e-05
0.000153148183414232,0.000420641924181099,0.000122553237440939,5.85969097474081e-05
0.000143098839706113,0.000420379663728455,0.000112351968112987,5.39769943455031e-05
0.000115561492178529,0.000412404561782155,8.97116499147461e-05,4.449412684184e-05
7.40647360125027e-05,0.000398457074073379,4.68488285996882e-05,3.46059308812406e-05
1.73926363821409e-05,0.000389289879160516,-1.72060544353821e-05,2.26390544559299e-05
-6.98566478405385e-05,0.000369155428955282,-0.000101428719484707,-5.61466475358705e-07
-0.00017490388005399,0.000332117100484198,-0.000201723954058566,-3.69025880310607e-05
-0.00026898385697507,0.00029547216269208,-0.000300196202020463,-7.26958481043039e-05
-0.000328588505303175,0.000276076810126114,-0.000367615606440591,-9.30817079846766e-05
-0.000356555006298721,0.000274229066027943,-0.00038719953581635,-0.000100308425767215
-0.000341296216326726,0.000262212768924997,-0.000370589462716319,-0.000109380654075563
-0.000303673762302027,0.000242602839625051,-0.000341838647932141,-0.000127053594708673
-0.000270652787128257,0.00023500920742805,-0.000309353663643038,-0.000142261395470324
-0.000230050100687152,0.000237822546829137,-0.000260214181405572,-0.000137731674628054
-0.000141417988623261,0.000267493740766867,-0.000177156945425175,-0.000105823881640371
-1.34825714518172e-05,0.000325274486856132,-5.37427731132979e-05,-5.26558075052316e-05
0.000136542328390022,0.000386226200236452,0.000100520558355667,7.72737989300863e-06
0.00029135944195744,0.000438749816343177,0.000257355939944562,6.07139792572703e-05
0.000412380719922824,0.000476110009915233,0.000374547078275095,9.64092072405411e-05
0.000458347824713458,0.000491762190566193,0.000419352619498118,0.000111720989792373
0.000429224993540346,0.000490558176669966,0.000394169981858084,0.000108597192007148
0.000367867968551395,0.000473380117021806,0.000332496263545706,9.14129106650232e-05
0.000303137320467074,0.000449514415831233,0.000266959469353174,6.69995819142195e-05
0.000245058551136169,0.000428485895901078,0.000208338525854754,4.45240804415143e-05
0.000188100349193832,0.000414955640730598,0.000155511006815341,3.07782255704228e-05
0.000143909462923376,0.00040991308748204,0.000110966525589205,2.5062407515103e-05
0.000110220915688331,0.000407910371298216,7.72872324277766e-05,2.18341985251039e-05
8.08715868515722e-05,0.000404119515664549,4.98819497099217e-05,1.86006530491929e-05
5.60641322174151e-05,0.00040395262264923,2.74692562627063e-05,1.76134059839123e-05
5.07235557272169e-05,0.000407159352729282,2.36201289588174e-05,1.93901355095994e-05
7.78555916461701e-05,0.000406909013206304,5.15075153923297e-05,1.95985389870202e-05
0.000121128566332374,0.000401723408801759,9.72293546927321e-05,1.52541413175856e-05
0.000144600876843982,0.000398945832189669,0.00012393838961268,1.00312465629432e-05
0.000127327449758497,0.000397372269473807,0.000108341568555974,9.24512365846777e-06
7.97271776036726e-05,0.000399506115883953,6.28024508288405e-05,1.22072153738308e-05
3.11851520052643e-05,0.000403046631994643,1.65664479166267e-05,1.43273877008084e-05
-4.2796137499579e-06,0.000403070473853974,-1.38158210250759e-05,1.51918929173171e-05
-1.99198734712525e-05,0.000406777882979982,-2.85471636206476e-05,1.89154872202258e-05
-2.45690360408447e-05,0.000414466882614308,-3.137428453356e-05,2.61501649559727e-05
-2.60591522490473e-05,0.000418293501036972,-2.5895757357625e-05,3.11029665224515e-05
-1.98364269635932e-05,0.000415039087238257,-1.96301028947475e-05,2.83725835329931e-05
-2.22086919670517e-05,0.000406432176019679,-1.86862955115867e-05,1.84294233912984e-05
-2.86817567754839e-05,0.000390565418634738,-1.97196602562987e-05,4.21314942857583e-06
-2.79068963472185e-05,0.00037188532184871,-1.74510782302974e-05,-1.30517234308619e-05
-3.22699566048358e-05,0.000354921838934531,-1.80904478348271e-05,-3.11371901197669e-05
-5.04970580635701e-05,0.000341355820975055,-3.32285034895165e-05,-4.42262167472804e-05
-8.21709681851249e-05,0.000335347672423582,-6.01101346138536e-05,-4.83267246117464e-05
-0.00010453463223783,0.000335776825891544,-8.0643849831317e-05,-4.67347606392608e-05
-0.000109469897119397,0.000339877625696518,-8.3499755461794e-05,-4.47399350084709e-05
-0.000107693678599219,0.000340914746577427,-7.58474050677433e-05,-4.10156565973032e-05
-0.000102698809069324,0.000348520299704093,-6.79751266440297e-05,-3.07435637375382e-05
-9.09447724190219e-05,0.000366938136037477,-5.70913436505384e-05,-1.61170008140957e-05
-7.41004988014995e-05,0.000373351596197581,-3.45632787830408e-05,-5.56146357575081e-06
-4.52995327293594e-05,0.000376534484418302,-1.49367137727943e-06,-9.19566191509413e-07
-1.22070319775958e-05,0.000386369251392439,3.13620223720095e-05,6.4082685089268e-06
1.00493437081184e-05,0.000398445153143713,5.37818413680103e-05,2.22693505502789e-05
8.92877631955005e-06,0.00041584971045552,5.96313268413062e-05,3.9643446388235e-05
-3.91006493032366e-06,0.000423109556621883,4.77067969630212e-05,4.78647739018451e-05
-2.01225292755681e-05,0.000421512152046689,2.84334474869125e-05,4.66898473921768e-05
-3.10421008492768e-05,0.0004175901661867,2.30091240345679e-05,4.3720314726804e-05
-1.24812133599051e-05,0.000413548971030055,4.26427783642772e-05,4.12591255513484e-05
1.61886224859132e-05,0.000405704999310076,7.05231742314814e-05,3.43960177106462e-05
2.26855291536766e-05,0.000393915199870777,7.73805892469535e-05,2.1580727015797e-05
1.66893015318693e-07,0.000379490874975376,5.63474761255877e-05,8.70965112775226e-06
-2.46286406891728e-05,0.000367808363903067,2.99624116729185e-05,4.60033307488288e-07
-3.83734725936337e-05,0.000363719485027759,1.76764808993796e-05,-6.14295229493376e-06
-4.7135355897865e-05,0.000353014490188032,7.71935936927093e-06,-1.62675285290802e-05
-7.9178814839054e-05,0.000337648411849046,-2.8085766003e-05,-2.95145337353234e-05
-0.000147962579009687,0.000324404258990542,-9.54443670524562e-05,-4.01994826802107e-05
-0.00021715165478895,0.000325536747308776,-0.000163582525455792,-4.20597076216389e-05
-0.000238728537483724,0.000337016602576769,-0.000192810436011494,-3.10340434443436e-05
-0.000217258943155941,0.000354790708708209,-0.000172446991485345,-7.92653346600652e-06
-0.000176322470684199,0.000380945228394582,-0.000129732485261697,1.79723203628304e-05
-0.000145399579131578,0.000398910069400672,-0.000103501626396647,3.10108460631916e-05
-0.000148153313884337,0.00038437845613828,-0.000111368551082202,1.99290371146368e-05
-0.000174558173093687,0.000347554704401177,-0.000141862472040523,-1.26516794503824e-05
-0.000207889092438763,0.000311481971233009,-0.000174252819865889,-5.24582208435847e-05
-0.000233590616797842,0.000282478349356553,-0.000201109484469737,-8.42817600919727e-05
-0.000246691718500359,0.000260937229450776,-0.000230622287765515,-0.000100103290012789
-0.000289320962984619,0.000261402145707735,-0.00026976366199365,-9.9873691332289e-05
-0.000330352802893686,0.000276565568242405,-0.000306372881723879,-8.79742125726754e-05
-0.000313889999025464,0.000294494646459499,-0.000307439983632398,-6.90185276372386e-05
-0.000241649165251801,0.000318217296494084,-0.000240868675367625,-4.53732777346105e-05
-0.000117182738613053,0.000341296216326726,-0.000109648809542073,-1.83240196487636e-05
3.44872495226413e-05,0.000373852275243537,3.50664596450406e-05,8.62069353128998e-06
0.000145053872171275,0.000394809269595699,0.000129259254927322,2.94138621995808e-05
0.000167262564138327,0.000400972390232825,0.000154341854460458,3.97603081556802e-05
0.000162422666694085,0.000403356576165949,0.000151777919710237,4.07279366953652e-05
0.000198018562675629,0.000403106236642971,0.000170363997724645,3.69177736168128e-05
0.000241005435049858,0.000396895432287182,0.000210003352801416,3.16469992816576e-05
0.00026149751314506,0.000387406372273348,0.000233471078623183,2.47532541964346e-05
0.000263404861891559,0.00037966968892036,0.000224017075588152,1.48929258195072e-05
0.000250530257852689,0.000371253512576432,0.000205590580870651,3.94088789553184e-06
0.000249850764861748,0.000365281126813956,0.000204386076220941,-8.91944170806315e-07
0.000270414368534945,0.000373399279916244,0.000216814986126585,8.52250803162149e-06
0.000284743325993021,0.000398325943847057,0.000227633150562302,3.17878887269521e-05
0.000298476236967816,0.00042545797976601,0.00023743899652584,5.61005058356277e-05
0.000317311305839497,0.00043381455146161,0.000251912960943305,6.64222067751173e-05
0.000330305119175024,0.00042777064012114,0.00025840368806871,6.07200850482124e-05
0.00031017066896979,0.000420451189306449,0.000238046906265539,5.11054499543661e-05
0.000274550931128915,0.000418877626590587,0.000196703601736092,4.82136557582661e-05
0.000242912783796357,0.0004183531056853,0.000160797951662581,4.91831415980003e-05
0.000224161161432335,0.000414419198895645,0.000140026031490471,4.45298745261726e-05
0.000201225292755681,0.000403773808704246,0.000113751328068067,3.2197699711523e-05
0.000152182588111316,0.000390267395393097,6.10363593022481e-05,1.85367138945523e-05
7.97748613223351e-05,0.000379693530779691,-1.19732340565161e-05,7.57979948296957e-06
1.23739249929145e-05,0.000368702433627989,-8.42911838513642e-05,-3.27677206505385e-06
-4.84108953720865e-05,0.000356960317907352,-0.000146767691905458,-1.59943996959502e-05
-0.000106370455406335,0.00034770967648683,-0.000203229171406065,-2.68614846721837e-05
-0.000150215634716489,0.000341141244241073,-0.000251773559820943,-3.20725821618254e-05
-0.000174665461460677,0.000340676327984114,-0.000279138982148106,-3.37323493589774e-05
-0.000174152861485056,0.000338900109463937,-0.000275076456144912,-3.59222840605768e-05
-0.000141930588598882,0.000337851067653362,-0.000244659869518232,-3.77754656105019e-05
-9.80019627810694e-05,0.000339961072204177,-0.000204454255273069,-3.58467117767648e-05
-6.55770340905806e-05,0.000342440625574626,-0.000170074019700633,-3.26809679364896e-05
-4.49299839097252e-05,0.000339233895494574,-0.000146998708233698,-3.73350066105739e-05
-2.47240081264978e-05,0.000322997589289998,-0.000129523505409438,-5.45409436252075e-05
-3.4809114623613e-06,0.000300169008980334,-0.000107766681022147,-7.57732544439968e-05
2.4306775588201e-05,0.000293016451180962,-7.68049321735445e-05,-8.37302737358892e-05
6.31451644387939e-05,0.000312674064199571,-3.7889371238145e-05,-6.55489688531586e-05
0.0001090526645811,0.000355350992402493,8.73300630572648e-06,-2.19749534486858e-05
0.000163674364308975,0.000410079980497359,6.5869497881361e-05,3.32726886136934e-05
0.000225675119499869,0.000459206131649383,0.000129520716340719,8.1170020319414e-05
0.000276434438016083,0.000486052065256361,0.0001821074618919,0.000107742022723865
0.000295865553371045,0.00048853161862681,0.000204163297318022,0.000111787705924822
0.000282061116818256,0.000480985670148472,0.000192686229825265,0.000102645311349988
0.000248026862622908,0.000464665917436237,0.000161181579663463,8.76176824538645e-05
0.000204551232132389,0.000440943267401652,0.000121003155232062,6.28366900633347e-05
0.000152134904392654,0.000398135208972407,7.01435258640773e-05,2.09241373604706e-05
8.05378008209348e-05,0.00034308435577657,4.1596353858095e-06,-3.33103808521755e-05
6.47306480843215e-06,0.000296008604527033,-6.74212725015304e-05,-8.18809081339257e-05
-4.73380117021806e-05,0.000265443340864381,-0.000121768042160441,-0.000110583161097028
-7.47799917924399e-05,0.000256633773841487,-0.000139572659028034,-0.000120099345022408
-5.70058856609991e-05,0.000259530559750233,-0.000119371975838449,-0.000116195997141598
-1.26600273048894e-05,0.000277006642640033,-7.6715545902691e-05,-9.72715162962499e-05
2.49743476494758e-05,0.000316393394255244,-3.07814727215471e-05,-6.14174167171799e-05
5.9306625086464e-05,0.000352430364634416,9.69494057220071e-06,-2.09037515044664e-05
9.90033208729816e-05,0.00037572386120104,4.85565893660435e-05,4.20456297273259e-06
0.000136077412133063,0.000386357330462773,8.9790028268881e-05,9.40158670324496e-06
0.000164556513104231,0.000385212921214874,0.00012496509142516,1.17097726235408e-05
0.000174081335907062,0.000395226502133995,0.000138302167234254,2.6928426098063e-05
0.000157856950632152,0.000422608877575927,0.000125010163068571,4.9749933186589e-05
0.000129950054284933,0.000438046481492906,9.82068413437019e-05,6.37542965278942e-05
9.6726423306848e-05,0.000431227709724171,7.3884599777435e-05,6.36107057440804e-05
7.38501592785215e-05,0.000423645998456836,5.44022923959726e-05,5.69153045660461e-05
5.09619743205294e-05,0.000420510793954777,3.20437404727884e-05,4.80928790404393e-05
1.83343898257249e-05,0.000401794934379753,4.03146809257345e-06,3.33572241427592e-05
-1.54495248466447e-05,0.000377190135549911,-2.3355953465859e-05,1.37539952330378e-05
-3.830194701564e-05,0.000368666670838992,-4.30217698204203e-05,1.98968199981927e-06
-4.90188627850331e-05,0.000376522563488636,-5.19213707353964e-05,8.70609145752444e-06
-4.85658674577396e-05,0.000390183948885438,-4.91190235150207e-05,2.73506686611893e-05
-4.358291885751e-05,0.000403046631994643,-3.69785014154812e-05,4.05523652835053e-05
-3.62277052538219e-05,0.000402879738979324,-2.4680474734509e-05,4.00595496874152e-05
-3.04460543659958e-05,0.000396037125351258,-2.29427393212651e-05,3.35986694719262e-05
-4.69923047418776e-05,0.000392174744139596,-3.33059104320648e-05,3.12548198369547e-05
-7.17520756573722e-05,0.000390052818659116,-4.8586897655245e-05,3.16227898150907e-05
-8.38518192679774e-05,0.000384199642193296,-6.45179797834354e-05,2.59391017134583e-05
-0.000102770334647318,0.000372302554387006,-8.28331230795004e-05,1.23958215598972e-05
-0.000129771240339949,0.000357186815570999,-0.000100074303416393,-1.67864961615323e-07
-0.000132405765796051,0.000349354764780686,-0.000102087506522615,-3.82780614871673e-06
-0.000105428701962751,0.000354564211044562,-7.66145899054778e-05,-1.75902525988421e-06
-6.18696249645725e-05,0.000353729745967969,-2.76041302922287e-05,-3.24187251122062e-06
-9.36985071717803e-06,0.00034060480240612,2.71664867541959e-05,-1.11667725164914e-05
3.02076357726834e-05,0.000331664105156905,6.86054253460626e-05,-1.91293996868767e-05
4.43100955671129e-05,0.000334334393402004,8.35832480679736e-05,-2.06900887119286e-05
2.6035310389716e-05,0.000334250946894344,6.68445482996786e-05,-1.72568354924417e-05
-2.16364873431019e-05,0.000333273430661764,2.30540758659255e-05,-1.53029634910558e-05
-7.90834474017291e-05,0.000331830998172223,-3.56479980469577e-05,-1.88357647319846e-05
-0.000145173081467931,0.000323927421803917,-9.85243353590885e-05,-2.66974309717211e-05
-0.000206494343667885,0.00031275751070723,-0.000159266996179487,-3.52550643010836e-05
-0.000254416480923681,0.000306832808663416,-0.000207952882411603,-4.15575369930184e-05
-0.00027954580065881,0.000303363818130721,-0.000229010371542626,-4.49068300225401e-05
-0.000266349331518968,0.000299942511316687,-0.000215673771276016,-4.67832872723725e-05
-0.000226926817114759,0.000300443190362644,-0.00017936422554687,-4.82000370118989e-05
-0.000184428702856821,0.000299894827598025,-0.000133150350405092,-4.6463717153941e-05
-0.000125002868473701,0.000308406371379278,-7.08695210714006e-05,-3.69508895677223e-05
-2.60233894600504e-05,0.000328481216936184,2.21687870271228e-05,-2.00033116068922e-05
8.62836889197641e-05,0.000342047234895661,0.000137405488403576,-3.59792369076886e-06
0.000184035312177855,0.000350201150786945,0.000237697319280518,4.32904378238592e-06
0.000240719332737883,0.000352680704157394,0.000290812284109578,5.34718935352293e-06
0.000248324885864549,0.00035394432270195,0.000298152344986409,8.86935088363393e-06
0.000231122984357058,0.000368571303401667,0.000283214321559174,2.07359967809801e-05
0.000211131585307812,0.000382781051563087,0.000260582224244274,3.62869168041768e-05
0.000177133093901461,0.000391852879038625,0.000225769699402868,4.55984546296746e-05
0.000119221217585875,0.00039050581398641,0.00017009883292979,4.32666488760344e-05
4.90903883630269e-05,0.000380289577262972,9.53145263409217e-05,3.19741347241004e-05
-3.20553798708546e-05,0.000366973898826474,1.46360307031671e-05,1.86899670192867e-05
-0.000102686888139658,0.000356030485393434,-5.32997952248199e-05,9.30951751820384e-06
-0.000135421761001453,0.000354850313356537,-9.25586823174344e-05,5.53532272479296e-06
-0.000143611439681735,0.0003552794668245,-9.97269248974943e-05,4.2161087807561e-06
-0.000133037575068329,0.00034828188111078,-8.77587254127497e-05,-6.83718876226003e-07
-0.000117528445573356,0.000335383435212578,-7.58071530792325e-05,-1.34411494736986e-05
-0.000113832957377014,0.000320649166145871,-7.37783652016169e-05,-3.22584474482004e-05
-0.000118184096704966,0.000303053873959415,-7.89879151365819e-05,-5.01045700754379e-05
-0.00012680292885321,0.000288534181626688,-8.56305500345439e-05,-6.13098632375839e-05
-0.000126755245134547,0.000286448018935205,-9.04522703384295e-05,-6.70230578040578e-05
-0.000120437152411768,0.000284087674861412,-8.73461508102539e-05,-7.15690983943949e-05
-0.000103020674170296,0.000282442586567556,-6.41946633686089e-05,-7.21287282988627e-05
-4.65035466255871e-05,0.000297808664906541,-1.35132660290025e-05,-5.55978711924332e-05
2.50697150868008e-05,0.000345695039373341,5.41792450125487e-05,-1.14074119502417e-05
8.05020380319379e-05,0.000410115743286356,0.000113933206760675,5.16666693257873e-05
0.000115311152655551,0.000462937382634722,0.000145487000467401,0.000106605647621266
0.000117361552558038,0.000487315683800917,0.000144546809239682,0.000129645581869936
8.73804144490012e-05,0.000478470353989026,0.000113394287042104,0.000118081020796045
1.93595897769683e-05,0.00044475796489465,4.86211794899057e-05,8.44432858306979e-05
-7.31945081469123e-05,0.000398218655480066,-5.12412529371747e-05,3.87400510951229e-05
-0.00019208193970215,0.000345635434725012,-0.000167863879605131,-1.56555258487051e-05
-0.000290358083865528,0.000291395204746437,-0.000266579878799419,-7.11680690975758e-05
-0.000344049951079485,0.000249958053228739,-0.000324494611253334,-0.000113200617681606
-0.000366854689529818,0.000228405012393296,-0.000346087820981743,-0.000133631390560238
-0.000363850615254081,0.000224268449799326,-0.000342731523706834,-0.000138893059243026
-0.000322210807932067,0.000231182589005386,-0.000306876053378591,-0.00013613270360667
-0.00024105311876852,0.000245726123197444,-0.000222486175379177,-0.000116515693429406
-0.000115144259640232,0.000301182288001912,-9.75478495123186e-05,-6.38803283527399e-05
1.94787990736246e-05,0.000387084507172376,3.29303458987052e-05,1.90782504021368e-05
0.000126290328877588,0.000468182591687595,0.000141550319000522,0.000103255774970473
0.000215637696721417,0.000522387058877174,0.000230156310739719,0.00015684365560319
0.000296056288245695,0.000539672406892324,0.000307367730876463,0.000171225392864277
0.000345706960303006,0.000526738198205125,0.00035908563502124,0.000160020788771007
0.000346934816058565,0.000506114989883601,0.000358802662906459,0.00013957211312633
0.000294852274349467,0.000485992460608033,0.000302608603544993,0.000117487554863804
0.000206267846004238,0.000462865857056728,0.000218176092470851,9.56990456794709e-05
0.000127446659055153,0.000442600276625173,0.000138062116634817,7.47139265273697e-05
7.06791919874663e-05,0.000421750570640002,7.58476296428399e-05,5.33900739204287e-05
2.29477896063202e-05,0.000398027920605416,3.00498830525362e-05,3.07676706339445e-05
-1.12533576043461e-05,0.000378346465727476,-7.70265883179599e-07,1.00634005841254e-05
-1.86920177156936e-05,0.000364649317541678,-1.32642618181023e-05,-3.27016346977354e-06
-3.38554402503634e-06,0.00036017896891707,-2.91274583175722e-06,-8.27019751444865e-06
2.36988081752544e-05,0.000357544443460968,3.19507036617617e-05,-9.26847571334645e-06
7.76529358418546e-05,0.000357794782983946,8.36043251147053e-05,-9.98825837579122e-06
0.000130820282150524,0.000357139131852337,0.000129062119705722,-1.18437906594087e-05
0.000137484081833606,0.000348103067165796,0.000139389171455832,-1.81375275380981e-05
9.98139440902438e-05,0.000333952923652704,0.000103838740386993,-3.30125033406879e-05
4.32610537565383e-05,0.000314068812970448,4.18669418575821e-05,-5.38454156166363e-05
-1.36375435374703e-05,0.000296056288245695,-1.56454787764282e-05,-7.12725913575387e-05
-5.20229370607696e-05,0.00028539897712463,-5.49456717196339e-05,-8.04083571113827e-05
-8.07642984845816e-05,0.000280749814555038,-8.29656870417626e-05,-8.5667051090286e-05
-0.000101768976555406,0.000277388112389333,-0.00010582383238581,-8.98986167145916e-05
-0.000108981139003106,0.000280034558775101,-0.000115491151901745,-8.5914062174323e-05
-9.11831910123343e-05,0.000299251097396081,-0.000102463596473157,-6.64061809419983e-05
-6.9212917638595e-05,0.000328266640202203,-7.3219222749752e-05,-3.68920014324169e-05
-3.63230726911469e-05,0.000357186815570999,-4.56705679665763e-05,-9.75196614946311e-06
-1.11103064483587e-05,0.000375866912357027,-2.94152826750171e-05,1.06931778673856e-05
-9.34600885784679e-06,0.000391006493032366,-1.9972178708552e-05,2.68399835965892e-05
-2.49147430011477e-06,0.000400459790257203,-1.51049644526504e-05,3.44637282968287e-05
-7.4148182520162e-06,0.000389730953558144,-2.73602263688406e-05,2.45023341867275e-05
-4.88996534883769e-05,0.000365328810532618,-6.9832247429361e-05,7.8544880754646e-07
-0.000112009055138174,0.000347971936939474,-0.000130825134607776,-1.68963355735279e-05
-0.00015138388582372,0.000349605104303664,-0.000174289048005443,-1.47325436939012e-05
-0.000147295006948412,0.000364577791963684,-0.000173176289429812,-1.01370477240482e-06
-0.000110232836617996,0.000371968768356369,-0.000138294247087083,7.51003309466155e-06
-7.5376038275721e-05,0.000371515773029075,-0.000106697002759818,7.7209041025986e-06
-7.52925917680616e-05,0.000374507926375146,-0.00010254448319308,8.54239907556308e-06
-7.99536752673194e-05,0.000376093410020674,-0.000116077383989618,1.23860877000981e-05
-8.05497217506004e-05,0.000376391433262314,-0.000120894688753673,1.07544351721916e-05
-6.78777735160454e-05,0.000363814852465084,-0.000103011104962875,-8.36173671657093e-07
-2.91228311731119e-05,0.000350391885661595,-6.85343577117245e-05,-1.39205958534335e-05
1.65104875868849e-05,0.000348055383447133,-3.06863315966723e-05,-1.75776434381293e-05
4.7326090772515e-05,0.000354599973833559,1.11533641246829e-06,-1.15134253652824e-05
6.81161921093578e-05,0.000360262415424729,2.15197661340599e-05,-3.61386126200387e-06
7.72595451628891e-05,0.00036766531274708,2.87135779322692e-05,1.89544352752058e-06
8.3613400674665e-05,0.000374996684491437,2.69706167247244e-05,8.48685074473888e-06
7.91430520500572e-05,0.000385868572346483,2.36530522100311e-05,2.00196715290742e-05
7.42316290278214e-05,0.000398385548495385,1.98321337904666e-05,3.32332191652871e-05
6.80208246720329e-05,0.000405240083053117,8.59415343865036e-06,3.93102806750038e-05
5.16057045224729e-05,0.000400590920483525,-1.26800557771027e-05,3.22525844137556e-05
3.12805194425892e-05,0.000379788898217016,-3.23271406627519e-05,1.48215589203166e-05
2.96115892894023e-05,0.000362443945553538,-3.33532565844164e-05,-4.01387142378977e-06
5.55038485231309e-05,0.000350785276340561,-1.10323769919389e-05,-1.69080484080107e-05
9.81450139370569e-05,0.000344085713868482,2.53900922334719e-05,-2.27018870122256e-05
0.000138282784121202,0.000343036672057907,6.86865060375314e-05,-2.41526510669714e-05
0.000190532218845619,0.000342679044167938,0.000122082534521411,-2.36042936522397e-05
0.000260233894600504,0.000346577188168596,0.000185954192132911,-2.15654655807051e-05
0.00032043458941189,0.000349926969404636,0.000243094463055846,-1.73508492133626e-05
0.000342154523262651,0.000356566927228387,0.000267978678297423,-1.01313534254929e-05
0.000321745891675108,0.000365829489578574,0.000250942652116943,-1.63888443225341e-06
0.000286471860794536,0.000368940852221301,0.000205022857535947,1.54459320307995e-06
0.000225651277640538,0.000359368345699808,0.000147231549074812,-7.32513781031598e-06
0.00015513897866839,0.000341904183739673,8.18985373085758e-05,-2.52102637391511e-05
8.45551541182491e-05,0.000328779240177824,7.93742146379826e-06,-3.83027523047124e-05
1.58429155256102e-05,0.000329387207590771,-6.51506084428054e-05,-3.62989957505371e-05
-4.31776072488789e-05,0.000341331979115723,-0.000118934575854344,-2.48119614825875e-05
-6.8235401406014e-05,0.000350523015887917,-0.00014250836766156,-1.68633289986148e-05
-6.35147132584282e-05,0.000350761434481229,-0.000139160080755645,-1.35353805248369e-05
-4.01377701841456e-05,0.000361776373492263,-0.000116620792515769,-1.8131283859677e-06
-5.04255324855764e-06,0.000393438362684152,-7.92834502830896e-05,2.62294746637148e-05
3.53336355289004e-05,0.000423979784487473,-3.29166184767246e-05,6.03657491429932e-05
8.34226658000151e-05,0.000444555309090335,1.09505860682984e-05,8.35402672824945e-05
0.000113284594612395,0.000454056290033835,4.17769990443112e-05,9.00640851709882e-05
0.000121665008167327,0.000449526336760899,5.73432395004659e-05,8.56734824960793e-05
0.000124013431311454,0.000433123137541004,5.97468303358607e-05,7.40268837140491e-05
0.000113689906221027,0.000412213826907505,4.89133740351311e-05,5.26802212491164e-05
8.77261214093042e-05,0.000384712242168918,2.71640498679925e-05,2.2727320004065e-05
6.27994574784909e-05,0.000352239629759766,6.95503377468027e-06,-5.99291775166137e-06
5.99861180774044e-05,0.000332367440007176,4.02470531248361e-06,-2.32717848390216e-05
7.2860722116275e-05,0.000330293198245358,2.01515733175878e-05,-2.77331436442657e-05
8.78095679169636e-05,0.000331687947016236,3.92217507047525e-05,-2.47575479724299e-05
9.02533584984159e-05,0.000333619137622067,4.41840011832738e-05,-1.922848799608e-05
7.641315915663e-05,0.000339961072204177,3.38821327172172e-05,-1.38841874087672e-05
6.03675878267042e-05,0.000341451188412379,2.00802538879539e-05,-1.14396250432271e-05
4.6539309414584e-05,0.000336682816546131,1.20339371301327e-05,-1.32124998250295e-05
4.25696398359322e-05,0.000334429760839329,8.9515255453229e-06,-1.62696677224557e-05
3.50475332169255e-05,0.00033224823071052,6.16608509722063e-06,-1.56911186328796e-05
2.72512452156094e-05,0.000337374230466737,3.83928454664889e-06,-9.68203166592205e-06
3.01957148430177e-05,0.00034683944862124,7.41567442939601e-06,1.1145698485064e-07
3.77178214620245e-05,0.000356125852830759,1.98221279420075e-05,1.22972205151305e-05
4.67658070782308e-05,0.00036948921498592,3.37634612401742e-05,2.58597075575679e-05
4.29034258665696e-05,0.000378942512210757,3.39145466808396e-05,3.66770229346892e-05
1.82509433180656e-05,0.000378572963391123,1.05082229575099e-05,3.85112204779192e-05
-2.59995476007192e-05,0.000369763396368229,-2.87780764248947e-05,2.95580115701545e-05
-6.78420107270486e-05,0.000352668783227729,-6.44009829189632e-05,1.50665276368586e-05
-8.92996841251662e-05,0.000338161011824668,-8.40533210836809e-05,1.51926326852643e-06
-9.94443952706096e-05,0.000327181835602631,-9.25634620013167e-05,-9.16946029855134e-06
-0.00011452437129762,0.000315821189631295,-0.000101318864007848,-1.78057374749218e-05
-0.000131833561172102,0.000309777278290825,-0.000113678240246022,-2.34729912522514e-05
-0.000144922741944953,0.0003081560318563,-0.000125617156920034,-2.43044816379017e-05
-0.000156235704197628,0.000309324282963531,-0.000135570085860871,-2.08943363779065e-05
-0.000173366080127125,0.000314223785056101,-0.000145186249424084,-1.57064189886365e-05
-0.00018345118662424,0.000318920631344356,-0.000151157872875402,-1.01616166798365e-05
-0.000174176703344387,0.000322294254439727,-0.00014414312268362,-4.9254814328586e-06
-0.000153911122912831,0.00032495262175516,-0.000118414669522423,-1.5970561958093e-06
-0.000119340426882531,0.000325751324042757,-7.84358230026343e-05,-1.13195329073267e-06
-7.60316894073301e-05,0.000321972389338755,-3.40939764059603e-05,-2.1429105801785e-06
-3.55720541222128e-05,0.000319898147576937,8.10175893470047e-06,-4.14374940110155e-06
4.45842769494222e-06,0.000314140338548442,4.89112670434022e-05,-1.05377757959225e-05
4.15921236033513e-05,0.000299000757873103,9.34244157853437e-05,-2.34882903435906e-05
8.8834767868207e-05,0.000284504907399708,0.000142116296111968,-3.6828565121488e-05
0.000133681305270273,0.0002830863167695,0.000181966294652421,-4.01970359321522e-05
0.000134730347080847,0.000290036218764557,0.00019158898832564,-3.14455654376037e-05
0.000103783613668896,0.000300323981065987,0.000162947053089942,-1.95990818908775e-05
5.7733062370602e-05,0.000308072585348641,0.000114755814528254,-1.34467490383798e-05
1.61051759782538e-05,0.000309324282963531,7.45331590651384e-05,-1.2249947756952e-05
-1.12771994636774e-05,0.000308609027183594,4.927293750036e-05,-1.08554890659852e-05
-3.84211563122962e-05,0.00031142236658468,2.57659608692294e-05,-9.36397175520311e-06
-6.37650527814062e-05,0.000308406371379278,-1.37287895509886e-06,-1.26832670157472e-05
-7.97629403926695e-05,0.000298571604405141,-1.93840958962114e-05,-2.21504518597916e-05
-8.42571308766085e-05,0.000289356725773616,-2.01797173995901e-05,-3.14528338387199e-05
-8.29577495430558e-05,0.000290405767584191,-1.53203948345309e-05,-3.09532098426377e-05
-7.804632652082e-05,0.000306510943562445,-1.62310717953457e-05,-1.53135753565096e-05
-7.6067452196327e-05,0.000333285351591429,-1.47718281390203e-05,1.12317188626011e-05
-6.57796898948961e-05,0.000359618685222786,1.66166892351923e-07,3.64812116522914e-05
-4.66823605705715e-05,0.000372862838081291,1.90302398722615e-05,5.01454002110568e-05
-3.5595895981544e-05,0.000377035163464258,2.48553630714472e-05,5.32711533030052e-05
-3.65734122141249e-05,0.000380349181911301,2.20328293570314e-05,5.4593117168769e-05
-3.76343749543652e-05,0.000382649921336765,2.85959638776382e-05,5.72738490373349e-05
-1.80840503027469e-05,0.000379943870302669,4.24160206812799e-05,5.51899046196422e-05
-1.54852876356416e-05,0.00037381651245454,3.9513224935418e-05,4.45871290737046e-05
-4.81367139897772e-05,0.000360202810776401,9.62024448736403e-06,3.20124890280557e-05
-8.94069724921568e-05,0.000353229066922013,-2.87460876987267e-05,2.49483301456986e-05
-0.00010761023209156,0.000351798555362138,-5.49795769759418e-05,2.06906900193068e-05
-0.000117456919995363,0.000344014188290488,-6.69289314774624e-05,1.23072914360493e-05
-0.00012048483613043,0.00033407213294936,-6.67691176674367e-05,1.20901830763538e-06
-0.000100147730120881,0.000328516979725181,-4.94766944928065e-05,-5.49592949004508e-06
-6.53028527082713e-05,0.00032647850075236,-1.94946053193555e-05,-8.0764874892449e-06
-4.31776072488789e-05,0.000322496910244042,2.18150011353309e-06,-1.48772118463178e-05
-3.78847144773432e-05,0.000308740157409916,6.14390445029762e-06,-2.95901787774248e-05
-3.09586543416175e-05,0.000291109102434462,1.13717947429556e-05,-4.66581881774042e-05
-6.56843224575712e-06,0.000280451791313397,3.18613942105392e-05,-6.09322303528159e-05
7.1883205883694e-06,0.000269138829060723,4.35899284596648e-05,-7.33604783752198e-05
-2.09808362114928e-05,0.000258123890049689,1.3824769979772e-05,-8.38220047288531e-05
-8.15033961238501e-05,0.00025967361090622,-4.72769268158093e-05,-8.59621875307414e-05
-0.000125670440534976,0.000271892563813482,-9.72223354374342e-05,-7.41812623956046e-05
-0.000147318848807743,0.000296068209175361,-0.000119533719225841,-5.05284694507955e-05
-0.000162231931819435,0.000328171272764878,-0.000135750657247727,-2.02596583592193e-05
-0.000177764903173739,0.000366854689529818,-0.000154580003763898,1.44514368359888e-05
-0.000169026861728839,0.000400078320507903,-0.000147878852347948,5.09511920717807e-05
-0.000116026408435488,0.000431132342286846,-9.73082866845169e-05,7.98671716682578e-05
-5.05805045712295e-05,0.000446820285726803,-3.46663941180813e-05,8.89888743506993e-05
-2.35438360896013e-05,0.000427246119215853,-6.73852796878744e-06,7.39104885696463e-05
-2.93254869774274e-05,0.000396335148592898,-1.72922668829607e-05,4.21433523872183e-05
-4.11033654870609e-05,0.000366020224453224,-3.24894032143135e-05,6.90977847320245e-06
-4.4119360692463e-05,0.000337648411849046,-3.35624237181115e-05,-2.20637739452122e-05
-4.43458583561098e-05,0.000315225143148013,-3.50127273835402e-05,-4.32978515343883e-05
-5.37991555809471e-05,0.000297713297469216,-5.2634414004805e-05,-6.06871819007672e-05
-8.45074703995866e-05,0.000287997739791735,-7.94751182394554e-05,-7.49662219879564e-05
-0.000101709371907078,0.000286436098005539,-9.71031074052239e-05,-7.86534568413757e-05
-9.01579910610909e-05,0.000296199339401683,-8.99265689223482e-05,-6.28543470138594e-05
-4.11987329243858e-05,0.000334060212019695,-4.48007546794574e-05,-2.92629603097123e-05
3.99231934501644e-05,0.000377094768112586,4.1347877082058e-05,8.9901839652715e-06
0.000142776974605142,0.000403440022673608,0.000143660184534331,3.96057916948199e-05
0.000227785124050684,0.000423157240340545,0.000217480303741307,5.97030662854842e-05
0.000239837183942627,0.000438237216367556,0.000238820425622904,7.11174273344089e-05
0.00022665263573245,0.000441122081346636,0.00022624136220104,7.38587363859682e-05
0.000222051156881521,0.000435328509529144,0.000211696880089289,6.87106970429097e-05
0.000206756604120529,0.000426244761123941,0.000201546570527149,6.11140058282831e-05
0.000183081637804606,0.000423800970542489,0.000180953892532801,5.62836024568287e-05
0.000153827676405172,0.000420975710211737,0.000147148847271566,5.29849762051119e-05
0.000125789649831632,0.000413990045427683,0.00011798667980912,4.72541172115393e-05
0.000111174590061581,0.000405716920239742,0.000107185421323893,4.00464641651397e-05
0.000111377245865896,0.000402462506441027,0.000107708475415973,3.58716039167341e-05
0.00011038780870365,0.000402653241315677,0.000105015914321027,3.51547018646792e-05
0.000100171571980212,0.000398755097315019,9.48046688489795e-05,3.31068079575255e-05
8.33988239406838e-05,0.000390481972127078,8.04253625242524e-05,2.59599772697678e-05
6.09993970989822e-05,0.00037909748429641,6.1416209855936e-05,1.42974002171326e-05
3.80158447036651e-05,0.000365495703547937,3.4024152974878e-05,5.17343580791044e-07
3.43322774369882e-06,0.000350785276340561,-3.72623666372901e-08,-1.34955207009723e-05
-3.92079376702271e-05,0.000334811230588629,-3.30694171600689e-05,-2.67647230930368e-05
-5.95450436797764e-05,0.000320231933607574,-5.99384223506835e-05,-4.05270026095946e-05
-8.21828891147905e-05,0.000305366534314545,-8.28252444246985e-05,-5.78106021834389e-05
-0.000114095217829658,0.000283360498151809,-0.000106721096511194,-7.76325792787306e-05
-0.000139129170127462,0.000264680401365781,-0.000132255804646218,-9.08420677277368e-05
-0.000155973443744984,0.000271344201048863,-0.000152972040904016,-8.71014476398905e-05
-0.000167858610621608,0.000293171423266615,-0.000158922166008587,-6.66231983761004e-05
-0.000157368192515862,0.000313389319979508,-0.000144815933746265,-4.04134028816227e-05
-0.000125646598675644,0.00033377410970772,-0.000116479020427722,-1.79288947783316e-05
-9.81688557963881e-05,0.000355601331925472,-8.73031807515896e-05,7.60513070149177e-07
-8.2325940270778e-05,0.000371706507903725,-6.5757651917744e-05,1.84744966993726e-05
-6.44803085613435e-05,0.000378727935476776,-4.83799513534836e-05,3.13535272201242e-05
-4.29987933038946e-05,0.000378477595953798,-2.84524273365589e-05,3.07084570074608e-05
-2.76207940352436e-05,0.000363409540856453,-9.05082550970962e-06,1.38890126162792e-05
-2.2578240786686e-05,0.000335168858478597,-8.92590096472791e-07,-9.61705711487244e-06
-2.85029428304996e-05,0.000318932552274022,-6.71353163494414e-06,-2.38976070032511e-05
-3.37600728130384e-05,0.000324344654342214,-1.55528762042221e-05,-1.85516488584693e-05
-4.24027468206135e-05,0.00034433605339146,-1.73848082150593e-05,3.64456016927675e-06
-4.75883512251586e-05,0.000369286559181604,-1.70397245915618e-05,2.96101700690812e-05
-4.35590769981788e-05,0.000384068511966974,-2.49618251889085e-05,4.66902627040638e-05
-6.43968620536841e-05,0.000385761283979492,-3.75030904389824e-05,5.13619534752307e-05
-7.20620198286783e-05,0.000384390377067946,-3.87461989653781e-05,4.81598898055904e-05
-5.23448021617414e-05,0.000373852275243537,-2.5159452835274e-05,4.17336971431699e-05
-3.98397469425051e-05,0.000362694285076516,-1.62630907709501e-05,3.18014787919821e-05
-6.43491783350216e-05,0.00034482481150775,-3.00706751936764e-05,1.56490328861044e-05
-8.81791167365978e-05,0.000321996231198086,-5.47654034713618e-05,-6.40343792220249e-06
-8.57114842958143e-05,0.000298059004429519,-5.95186187746379e-05,-2.90041258523135e-05
-6.35981597660875e-05,0.000279796140181788,-3.41379899925899e-05,-4.46322035137785e-05
-4.02092957621393e-05,0.000274193303238946,-3.71084337854345e-06,-4.82889737578124e-05
-2.69651429036345e-05,0.000283837335338434,3.42003405225986e-06,-4.01734959461581e-05
-3.60131285198407e-05,0.000295794027793051,-8.34548011109973e-06,-2.44297374123601e-05
-4.16398073220138e-05,0.000312590617691911,-9.12088203730698e-06,-5.81420878414717e-06
-1.42931946690795e-05,0.000330936928447302,1.8837196481468e-05,1.18239216175328e-05
3.38792821096946e-05,0.00034193994652867,6.33591970080704e-05,2.47311815176262e-05
7.40766569421683e-05,0.000345087071960394,0.000100995307298437,2.98440427617736e-05
8.85009818375696e-05,0.000342822095323926,0.000120119995169641,2.78315793186908e-05
9.14692933243092e-05,0.000337588807200718,0.000120991712309336,2.37289147334236e-05
7.82132195361387e-05,0.000335359593353247,0.0001038952816415,2.24190512211143e-05
4.04834771444486e-05,0.000335991402625525,6.76466872926828e-05,2.44299612867336e-05
-6.87837641706326e-06,0.000339639207103205,1.75354680177335e-05,2.76588854890206e-05
-5.89370762668297e-05,0.000340974351225755,-3.1981727690841e-05,3.13234430410734e-05
-8.63313726384266e-05,0.000345528146358022,-6.31429043752901e-05,3.53346963419857e-05
-8.04424333836098e-05,0.000346970578847562,-6.27969052304154e-05,3.69340958892131e-05
-5.36918672139565e-05,0.000339531918736215,-2.98440144985763e-05,3.16375282041377e-05
-1.06096274024026e-06,0.000326597710049016,1.99090415000332e-05,1.79511265320695e-05
4.56094769006656e-05,0.000307548064443354,5.95018658484124e-05,-1.66849997339961e-06
5.33819230426504e-05,0.00028262140051254,6.8297261045231e-05,-2.49654260123661e-05
2.75850312462468e-05,0.000255119815773953,4.57829322298133e-05,-5.16060161821421e-05
-3.63588354801438e-06,0.00023106337970873,8.30018973082717e-06,-7.87490228818678e-05
-3.12685985129236e-05,0.000210571301613528,-2.37366036920285e-05,-9.74720470984566e-05
-4.43577792857754e-05,0.000208747399374688,-3.40255805156636e-05,-9.74561787932904e-05
-2.50458732274695e-05,0.000233304514485867,-1.50035004037507e-05,-7.61363820243657e-05
2.23994268417017e-05,0.000269126908131057,2.58096842483516e-05,-4.15349677588049e-05
6.50405922556276e-05,0.000301969069359843,6.72527924780237e-05,-4.96462492878944e-06
8.83221678925853e-05,0.000336623211897803,9.12910821397707e-05,2.77487057702565e-05
9.39846094837552e-05,0.000368642828979661,9.65047842704723e-05,5.55806245673733e-05
9.13262421683217e-05,0.000383842014303327,8.7411364303211e-05,7.35163582217565e-05
6.25968016741753e-05,0.00037879946105477,5.67379502455179e-05,6.96034483017643e-05
-4.54187420260156e-06,0.000350248834505608,-5.63577650791554e-06,3.60623517830859e-05
-8.00728845639756e-05,0.000296604651010314,-8.64794069903623e-05,-1.77272548456635e-05
-0.000138473518995852,0.000243413462842313,-0.000151305422576349,-6.93475615182662e-05
-0.000171816359270594,0.000212597859656683,-0.000180801784427382,-0.000102305191404168
-0.000183486949413237,0.000200462353257081,-0.000189532904217723,-0.000115918327229823
-0.000177335749705777,0.000204837334444364,-0.000197521312002514,-0.000114255843578129
-0.000186085712080342,0.000223755849823704,-0.000198729734237415,-9.31868308738738e-05
-0.000163030634107031,0.000270795838284244,-0.000174816354630306,-4.73381748811253e-05
-0.000107145315834601,0.000336146374711178,-0.000128970642704659,1.29117668092552e-05
-6.729364796243e-05,0.000384593032872262,-8.45172111669027e-05,6.20719152140636e-05
-3.79800819146682e-05,0.000401473069278781,-5.38514972695348e-05,8.09973732737584e-05
-4.48226955427346e-06,0.000398039841535082,-2.96429069806994e-05,7.24556620699816e-05
1.15752227053179e-05,0.000381350540003213,-6.68612991328521e-06,5.30410456990769e-05
3.01361101946896e-05,0.000359642527082117,9.36280601993037e-06,3.54723157321352e-05
4.66823605705715e-05,0.000352299234408095,2.06524123839284e-05,2.29107099361744e-05
6.53505364269338e-05,0.000346171876559965,4.44106371441544e-05,1.52423674181111e-05
0.000112712389988446,0.000342464467433957,9.03210943718312e-05,1.30434509510841e-05
0.000171375284872966,0.000348913690383058,0.000144913418577552,1.49914440740311e-05
0.000213277352647624,0.000349605104303664,0.000189437369392541,1.659141394494e-05
0.000242209448946085,0.000348579904352421,0.00022052821758288,1.39999668486491e-05
0.00026773215936018,0.000344407578969453,0.000241242365255016,7.55743198903448e-06
0.000269448773232029,0.000337755700216037,0.000244045436234102,4.41125341472918e-07
0.000240027918817277,0.00033339263995842,0.000218851208587851,-5.30351081529599e-06
0.000194740307017583,0.000328052063468222,0.000171019251275751,-1.05893584611243e-05
0.000143468388525748,0.000324785728739841,0.000116656255177386,-1.69853001366459e-05
8.55803540694925e-05,0.000319886226647271,6.5130738171663e-05,-2.25063585384681e-05
3.97443795051801e-05,0.000320637245216205,1.97709528218368e-05,-2.07004213883663e-05
1.45792969810544e-05,0.000337815304864365,-1.03294589195369e-05,-6.09596921679104e-06
4.42266490594535e-06,0.000364792368697665,-1.68570989831027e-05,1.88139121885996e-05
6.96182292472261e-06,0.000388121628053285,-9.49167096269334e-06,4.38602099445404e-05
9.07182747553751e-06,0.000405478501646429,-1.02597034229465e-05,5.94256911346253e-05
-8.09431124295659e-06,0.000410401845598331,-2.90012468874112e-05,6.28410659851419e-05
-4.19855142823168e-05,0.000403058552924308,-5.77068863215305e-05,5.63261294485452e-05
-7.59482428996708e-05,0.000390839600017047,-8.85506055542611e-05,4.21129516974888e-05
-0.000104820734549805,0.000371003173053454,-0.000120467999480548,2.25696091093212e-05
-0.000128185756694422,0.000350701829832901,-0.000145192382970363,2.9487259876376e-06
-0.000137460239974275,0.000340271016375483,-0.000145850234053376,-1.01873351366885e-05
-0.000111711031896533,0.000336146374711178,-0.000118627580401278,-1.37951180258726e-05
-6.57677689652305e-05,0.000338506718784971,-8.12495331465624e-05,-9.76137511001803e-06
-4.38690211694849e-05,0.000347864648572484,-5.06159269217595e-05,-2.25088529674903e-06
-2.42710127992042e-05,0.000355041048231187,-2.61989322628241e-05,4.0423440224013e-06
-1.90734874649934e-07,0.000353670141319641,-6.13678394924668e-06,4.18972249336913e-06
4.58955792126405e-06,0.000344371816180457,-3.35943778833928e-06,-4.46871295979453e-06
-2.90989893137806e-05,0.000331056137743958,-2.75041231793046e-05,-1.91223967568676e-05
-6.29663504938096e-05,0.00031716825468351,-6.14163458145311e-05,-3.32675907812937e-05
-7.40885778718339e-05,0.000306057948235151,-7.64125770206615e-05,-4.23321889055462e-05
-6.74486200480831e-05,0.000302529353054127,-6.64543948219786e-05,-4.54679337391457e-05
-5.42640718379063e-05,0.000307464617935694,-4.77278536953783e-05,-4.22768720579191e-05
-3.2293798464167e-05,0.000316476840762904,-2.69489166172628e-05,-3.18595798451395e-05
4.76837186624836e-06,0.000329792519199402,7.42432285030207e-06,-1.63187360171348e-05
5.03420859779171e-05,0.000346636792816925,5.80803700959368e-05,-9.92653380351686e-07
9.23156793305683e-05,0.000358486196904552,0.000104043372634514,1.13896594492129e-05
0.000117576129292019,0.000368273280160027,0.000124346127252483,2.30061059782909e-05
0.000113904482955008,0.000378584884320789,0.000122119688778421,3.39640347243868e-05
9.78231488360851e-05,0.000382399581813787,0.000112889449675575,3.71734058879199e-05
8.82864051035884e-05,0.000370478652148166,0.000100112389724335,2.65761124604377e-05
6.78539316567142e-05,0.000351178667019526,7.6706283863103e-05,9.13617734304856e-06
2.87175195644808e-05,0.000344002267360822,4.45083663011275e-05,1.36723872539027e-06
-3.45706960303006e-07,0.000353515169233988,1.72275024342448e-05,1.15669283414029e-05
-4.80413465524522e-06,0.000370538256796495,3.75616573992035e-06,3.03084764353771e-05
-1.7452241030469e-05,0.000380468391207957,-1.46132060505945e-06,4.14419325610595e-05
-2.90751474544494e-05,0.000378692172687779,-9.48315745199322e-06,3.8851260831702e-05
-3.65853331437905e-05,0.000367867968551395,-2.33878409058238e-05,2.91281224317627e-05
-4.5156481573372e-05,0.000356841108610696,-3.35171002724003e-05,2.09284176025985e-05
-4.3678286294835e-05,0.000352549573931073,-2.36357974104526e-05,1.64124932942002e-05
-4.55379513226718e-06,0.000350093862419955,1.32523009360888e-05,1.23724219820419e-05
4.88162069807176e-05,0.000339579602454877,5.96330677593283e-05,5.48168740259123e-06
6.51955643412807e-05,0.000327003021657647,8.00511619300804e-05,-4.93854503352555e-06
3.25918217058075e-05,0.000317788143026122,5.31842903138639e-05,-1.70488280897355e-05
-1.72853480151503e-05,0.000306761283085423,-4.24419224041438e-06,-2.74658298422805e-05
-6.62803689408522e-05,0.000296461599854326,-5.42936732035443e-05,-3.24446296571985e-05
-9.20176560889277e-05,0.000300538557799969,-7.70952729469045e-05,-2.97991024675209e-05
-0.000101995474219052,0.000311231631710031,-8.47116674953121e-05,-2.19374135932972e-05
-0.000111114985413252,0.000311183947991368,-9.87051788135826e-05,-1.789378856087e-05
-0.000136852272561328,0.000296759623095967,-0.000127236217346859,-2.91793600736809e-05
-0.000179398070537929,0.000271010415018226,-0.000166091563531664,-5.86563185155344e-05
-0.000224280370728992,0.000236558928284581,-0.000207614743909314,-9.33668293084472e-05
-0.000249040141644486,0.000211274636463799,-0.000240149917567181,-0.000113377080376423
-0.000255215183211278,0.000215160859534792,-0.000248931462782462,-0.000109632065603514
-0.000242984309374351,0.000240170969973264,-0.000228197065730377,-8.89097988018948e-05
-0.000200700771850393,0.000264990345537087,-0.00018696340849161,-5.99850027547261e-05
-0.000137794026004912,0.000300204771769331,-0.000134331696318797,-2.23837470531977e-05
-7.33137174435686e-05,0.000350749513551564,-6.53968939995967e-05,2.5233967540798e-05
1.23977668522457e-05,0.000396561646256545,2.65139560789467e-05,7.16134618318377e-05
0.000117015845597735,0.000420582319532771,0.000126225633255616,9.77658057543346e-05
0.000196623813904751,0.000417578245257035,0.000198621625993389,9.49834471345233e-05
0.000209164631912984,0.000393974804519105,0.000218912377503392,7.1160807986667e-05
0.000182104121572025,0.000363600275731103,0.000194841329684075,3.99665955918427e-05
0.00015043021145047,0.000332450886514836,0.000156088248880309,1.10610298798721e-05
0.000123095519727201,0.000311601180529665,0.000126809551838614,-9.50356950847575e-06
9.92178976069628e-05,0.000303339976271389,0.000111016497742667,-1.86003226452372e-05
8.84056144002446e-05,0.000303125399537408,9.96863001725794e-05,-1.88313239880706e-05
8.30411960507152e-05,0.000305879134290167,8.69524494330303e-05,-1.47984497542198e-05
6.90341036936106e-05,0.000315237064077679,7.90271926750008e-05,-3.79345334869986e-06
7.60197684776645e-05,0.000344169160376141,8.77473855611314e-05,2.19379510598356e-05
0.000103700167161236,0.000379872344724676,0.000114423311214071,5.94591344164218e-05
0.000133013733208998,0.000408267999188185,0.000141399377415144,8.98444098525421e-05
0.000128471859006396,0.000415611291862207,0.000143459659153494,9.55651560110592e-05
9.71913395638072e-05,0.000397551083418791,0.000109142909871969,7.75193218921563e-05
3.62277052538219e-05,0.000368082545285377,4.95257460308432e-05,4.84995779176048e-05
-3.18527240665391e-05,0.00033415557945702,-1.33864290318327e-05,1.65910533043301e-05
-7.80820893098169e-05,0.000302839297225433,-6.40855998213965e-05,-1.57492419350026e-05
-0.00011749268278436,0.000278246419325257,-9.96988093528716e-05,-4.2065394725196e-05
-0.000144755848929635,0.000262033954980013,-0.000123288618770141,-5.49353068440152e-05
-0.000157117852992883,0.000257778183089386,-0.000134920141340064,-5.8602541999828e-05
-0.000148940095242268,0.000254058853033713,-0.000129869548949549,-6.5870090048491e-05
-0.000129973896144265,0.000237846388688468,-0.000104258288079074,-7.8000174243387e-05
-8.96096282964723e-05,0.000239753737434968,-6.03396393652062e-05,-7.7653827291976e-05
-3.08632869042925e-05,0.000266802326846261,-4.87433333297383e-06,-4.91353873630873e-05
2.79426591362154e-05,0.00031583311056096,5.52533915206363e-05,-1.76164366838398e-07
7.54594847833803e-05,0.000360333941002723,0.00011132885774165,4.30625871479147e-05
0.00011547804567087,0.000373530410142565,0.000148467879479123,5.95632098647445e-05
0.000118327147860953,0.000361931345577916,0.000152233734760019,4.70083450399285e-05
8.61048749747798e-05,0.000331056137743958,0.000124504534586536,1.59214497546364e-05
4.64081791882622e-05,0.000293147581407284,8.61516554557483e-05,-2.11442974445709e-05
1.52349481126635e-05,0.000260210052741173,5.71490514758793e-05,-5.33040215670802e-05
-3.82661842266431e-06,0.000240993514120192,3.8651289307712e-05,-7.12431094997749e-05
-2.26974500833422e-05,0.000243556513998301,2.13929253112273e-05,-6.99563797966677e-05
-4.30226351632258e-05,0.00026043655040482,5.63233905145427e-06,-5.25378584574129e-05
-4.71115140385338e-05,0.000281929986591934,1.19065387435257e-06,-2.88683612625932e-05
-3.92675423185553e-05,0.000301790255414859,9.21027960051046e-06,-8.41313408876662e-06
-3.65614912844593e-05,0.000318956394133353,1.57122528646907e-05,6.34285012841182e-06
-4.81963186381053e-05,0.000329148788997459,6.42847468326436e-06,1.92452117476474e-05
-7.18474430946972e-05,0.000342440625574626,-1.93468938074374e-05,3.40038433489707e-05
-0.00010635853447667,0.000359523317785461,-5.11732898832448e-05,4.98808624932242e-05
-0.000134801872658841,0.000372934363659284,-7.64242177299018e-05,6.36605649018003e-05
-0.000142955788550126,0.000380909465605585,-8.60241346814788e-05,7.3109834970331e-05
-0.000137245663240293,0.000384235404982293,-8.00453231923341e-05,7.67328957019789e-05
-0.000130105026370587,0.000379216693593066,-7.07684203674625e-05,7.25536749207019e-05
-0.000133991249441579,0.000367784522043736,-7.31743311130389e-05,6.04166654829426e-05
-0.00014860630921163,0.00035125019259752,-8.91537782853337e-05,4.47087891716091e-05
-0.000163042555036697,0.000337111970014093,-0.00010613270146619,3.2007055883111e-05
-0.000174415121937699,0.000331091900532955,-0.000111377891063867,2.62420880118582e-05
-0.000161516676039498,0.000333917160863707,-0.000100211744833934,2.7780896573539e-05
-0.000126183040510597,0.000339698811751533,-7.11995069936962e-05,3.5188928790956e-05
-8.5878377311133e-05,0.00034809114623613,-2.61370065252721e-05,4.42265240652895e-05
-4.17232538296732e-05,0.000350046178701292,2.06044143627853e-05,4.65546573127663e-05
-9.62019024015607e-06,0.000339341183861565,4.4963857626907e-05,3.48762381890201e-05
-1.97410595262682e-05,0.00031507017106236,3.45787365808836e-05,1.08092077175818e-05
-5.79595600342488e-05,0.000286114232904567,3.98080548322949e-07,-1.602752945489e-05
-9.3424325789471e-05,0.000264632717647118,-3.94114995970007e-05,-3.81412428605562e-05
-0.000130188472878246,0.000248396411442543,-7.87413787245296e-05,-5.59171381462014e-05
-0.000168848047783854,0.000231719030840339,-0.000118607233349245,-7.15785631671883e-05
-0.000200521957905409,0.000220716012758971,-0.000151179466844323,-8.1355038737914e-05
-0.000210881245784834,0.000224280370728992,-0.000160739131903304,-7.80994579999387e-05
-0.000181639205315066,0.000243341937264319,-0.000139090256559525,-6.14795248758847e-05
-0.000136876114420659,0.000260567680631142,-9.3592519962028e-05,-4.24684409377386e-05
-8.44836285402553e-05,0.000267624870993189,-4.28384426974335e-05,-3.53431502079376e-05
-4.85301046687427e-05,0.000258362308643002,-8.02003227674945e-06,-4.43317389819064e-05
-3.63469145504781e-05,0.000246000304579753,-2.43628996214261e-07,-5.89996322694988e-05
-3.87907051319304e-05,0.000240957751331195,-7.7132517863561e-06,-6.51093295694003e-05
-3.63469145504781e-05,0.000241684928040798,-2.02928649630923e-06,-6.01770396879688e-05
5.60283694284182e-07,0.000250017657877067,3.25810870172983e-05,-5.41839834152857e-05
5.72443042543116e-05,0.00025640727617784,8.06243023124219e-05,-5.24299566589915e-05
9.22203118932433e-05,0.000262653843322625,0.000114718333004033,-4.30267542587493e-05
