BCL,BCC,BCL_Filtered,BCC_Filtered
-,-,-,-
0.000889480167000304,0.00140620478428631,-1.04789931833774e-21,-1.0183236822634e-20
0.000887322478730826,0.00141834029068591,-4.58465067447703e-06,6.25688107178203e-06
0.000889575534437629,0.00143574484799772,-5.77619445920333e-06,1.6797710806335e-05
0.000895142608591473,0.00145474680988472,-2.92972923776892e-06,2.94318230301485e-05
0.000902724319858808,0.00147043475332467,2.21344364840563e-06,3.88609656513854e-05
0.00091140275665538,0.00148092517143042,7.93281489754592e-06,4.434136722065e-05
0.000919961984155296,0.00149396666848461,1.38653146804348e-05,5.00272214127396e-05
0.000929498727887793,0.00150880822591831,2.04176112691818e-05,5.85054881231653e-05
0.000938963946042296,0.00152236232294812,2.76357857887202e-05,6.79427264618701e-05
0.000948631820001115,0.00153710851294449,3.46028928636321e-05,7.5939176679842e-05
0.000956225452198115,0.0015499354332647,3.97326092818765e-05,8.24632768504299e-05
0.000961291847306004,0.00155971059559051,4.20905367070406e-05,8.75811828508999e-05
0.000964129028566422,0.00156642207899225,4.26081187665209e-05,8.94759393017666e-05
0.000966346321484227,0.00157032022299291,4.32358885873966e-05,8.71575555682207e-05
0.000971043167772482,0.00157136926480348,4.45577815000556e-05,8.32516306384995e-05
0.000973236618830956,0.00157345542749497,4.52335427031016e-05,8.16258809877003e-05
0.000974297581571196,0.00158035764577136,4.43640403182913e-05,8.31065101298527e-05
0.000975143967577455,0.00158696184080612,4.30765872411407e-05,8.52758592663685e-05
0.000976598320996661,0.00159101495689243,4.24830071527112e-05,8.54049572300985e-05
0.000977003632605292,0.00159107456154076,4.1149602779295e-05,8.16021495526665e-05
0.000973475037424268,0.00158548364552758,3.64813534166092e-05,7.22138820394332e-05
0.000967598019099117,0.00157443294372755,2.83075686666387e-05,5.70774253469885e-05
0.00095977788923847,0.00155950793978619,1.93294505813424e-05,3.96237033305173e-05
0.000953781661616663,0.00154830226590051,1.19424576253272e-05,2.51705569674061e-05
0.000949192103695399,0.00154266366616867,6.23496253432031e-06,1.59810680434685e-05
0.000945818480600028,0.00153796681988042,1.39717713907528e-06,9.47244463857852e-06
0.000942826327253957,0.00153305539685818,-2.59256719245595e-06,1.96781601650137e-06
0.000940835531999798,0.00152660617390908,-5.53529212696731e-06,-7.47254122515831e-06
0.00093884473674564,0.00151702174645792,-8.06554437842754e-06,-1.78671291591802e-05
0.000937032755436465,0.00150830754687235,-1.11993847422428e-05,-2.90137643498872e-05
0.000933551843974104,0.00149816283572691,-1.55488943181918e-05,-4.13640590794158e-05
0.000927031095447009,0.00148578891073399,-2.15321632056516e-05,-5.39732810445245e-05
0.000920546109708912,0.00147662171582113,-2.93365455163201e-05,-6.44066702579967e-05
0.000913476998417199,0.00147331961830375,-3.77195170650487e-05,-7.06197366395686e-05
0.000905966812727857,0.00147081622307397,-4.36270474970736e-05,-7.17796042684452e-05
0.00090658670107047,0.0014762164042125,-4.43190274986716e-05,-6.76099330919075e-05
0.000911581570600365,0.00148680218975557,-3.99617676423593e-05,-5.84337874119182e-05
0.000917887742393478,0.00149978408216143,-3.3505468057788e-05,-4.59741676661912e-05
0.000922370011947752,0.00151178845833471,-2.7981954082949e-05,-3.2755163121857e-05
0.000927531774492966,0.00152497300654489,-2.41357525812647e-05,-2.01523107462328e-05
0.000931537206860614,0.00153969535468193,-2.03047424989559e-05,-7.73125516547655e-06
0.000936400946164187,0.00155023345650634,-1.41811958990063e-05,5.30702673476613e-06
0.0009453774062024,0.00156304845589688,-5.02212675030896e-06,1.87707106540906e-05
0.000957262573079024,0.00157818803657222,5.42072798502714e-06,3.16370589976208e-05
0.000964713154120037,0.00158827314306934,1.43870388241607e-05,4.26556163124835e-05
0.000970459042218866,0.00159368524513753,2.07348477888138e-05,5.05002296354629e-05
0.000975966511724383,0.00159852514258177,2.55791193155577e-05,5.40646153137355e-05
0.000979995785951363,0.00159767875657551,3.00629746571525e-05,5.29455300595453e-05
0.000982797204422784,0.00159028778018283,3.34355666217314e-05,4.72322476429313e-05
0.000982749520704122,0.00157915363187514,3.42324852666604e-05,3.70659171055872e-05
0.000981819688190203,0.00156587371622763,3.26088640891967e-05,2.33501978622428e-05
0.000978541432532157,0.00155110368437193,3.01024396017144e-05,8.7130704896963e-06
0.000974988995491802,0.00153726348503014,2.72436890379474e-05,-3.70893614020003e-06
0.000970292149203548,0.00152683267157273,2.28702647129687e-05,-1.29490439920386e-05
0.0009639978983401,0.00152015695095998,1.62336262822249e-05,-2.06292265506773e-05
0.00095536714526219,0.00151149043509307,8.55957537541329e-06,-2.84651327722334e-05
0.000948035773517833,0.00150178679834526,1.68354091153286e-06,-3.67283497149238e-05
0.000942254122630007,0.00149273881272905,-4.04673176360605e-06,-4.54806558784749e-05
0.000936818178702484,0.0014834285666602,-9.49790791361428e-06,-5.52252055546822e-05
0.000930559690628033,0.00147285470204679,-1.48543378585289e-05,-6.49919927330844e-05
0.000925827081550782,0.00146487960010049,-1.92495430945275e-05,-7.17140974176595e-05
0.000923132951446351,0.00146312722343965,-2.25478499756766e-05,-7.37951181589841e-05
0.000918090398197794,0.00146247157230804,-2.64995399260409e-05,-7.42166389162226e-05
0.000911450440374043,0.00145869263760404,-3.31934445712529e-05,-7.75500107193134e-05
0.000901961380360209,0.00145150431701567,-4.24192433666711e-05,-8.41247400873904e-05
0.000893402152860293,0.00144562729869052,-5.11951857322752e-05,-8.94250817573633e-05
0.000887739711269123,0.00144681939165708,-5.6208341424441e-05,-8.92788806767158e-05
0.000887382083379154,0.00145156392166399,-5.64351538372895e-05,-8.33731096145753e-05
0.000891137176223825,0.00146098145609984,-5.30954755818753e-05,-7.33779558619528e-05
0.000896215492261379,0.00147451171127031,-4.7496027197316e-05,-6.02366841331734e-05
0.000903761440739717,0.0014906049663189,-3.98377667931726e-05,-4.46132310571587e-05
0.00091360812864352,0.00150598296558755,-3.02946971919049e-05,-2.79552440824585e-05
0.000923371370039664,0.00152245769038544,-2.01374078973341e-05,-1.11986512764055e-05
0.000933158453295139,0.00154172191272509,-1.06939234237562e-05,6.5540010117162e-06
0.000941968020318032,0.00156024703742546,-1.66305422409684e-06,2.64588559310559e-05
0.000951707419854845,0.00158056030157568,8.17614286621806e-06,4.75498557243816e-05
0.000962412414694572,0.00160191068660681,1.84283811015963e-05,6.69811856170234e-05
0.000970494805007863,0.00161559591386294,2.66414741106277e-05,8.20866712374072e-05
0.000974786339687487,0.00162432203437817,3.11899511971366e-05,9.15195700241638e-05
0.000977671204666567,0.00162943611320472,3.35452944300651e-05,9.54012315401039e-05
0.000980627595223641,0.0016293049829784,3.64698291845136e-05,9.53932255668282e-05
0.000984382688068312,0.00162576446686771,4.05238637180957e-05,9.36702058430392e-05
0.000988161622772313,0.00162385711812121,4.36792432176754e-05,9.07253924305319e-05
0.000988304673928301,0.00161900529974731,4.41550527702278e-05,8.5186650420844e-05
0.000986671506564111,0.00160882482581287,4.21646721821515e-05,7.68351649741808e-05
0.000983190595101749,0.00160001525878997,3.8627237706057e-05,6.8251006228587e-05
0.000978326855798176,0.00159479389159643,3.36504398975218e-05,6.17195668345468e-05
0.00097178226541175,0.00158796319889803,2.7188253115545e-05,5.6094618633495e-05
0.000965189991306662,0.00158016691089671,2.02338708591087e-05,4.92250181775536e-05
0.000959324893911176,0.0015734792693543,1.42887356586021e-05,4.20730953939559e-05
0.00095506912202055,0.00156805524635644,1.00840363243412e-05,3.69788023856759e-05
0.000952518043072107,0.00156345376750551,7.57932554113984e-06,3.26216549211585e-05
0.000952196177971135,0.00155423888887399,6.66790082176013e-06,2.50918355566979e-05
0.00095199352216682,0.00154451141026684,6.90467249928568e-06,1.4422127894234e-05
0.000952458438423779,0.001535058113042,6.87045108890056e-06,5.16003584568762e-06
0.000950038489701658,0.00152591475998847,4.92259201522839e-06,-1.59221186566461e-06
0.00094624763406799,0.00151695022087993,7.27350310077391e-07,-1.17211364646151e-05
0.000941360052905086,0.00149894961708484,-4.6249764630467e-06,-2.94707485772762e-05
0.000935232695056957,0.00147715815765608,-1.00098021228151e-05,-4.88285319857867e-05
0.000930094774371074,0.00146777638600924,-1.51168255159068e-05,-5.90519441373303e-05
0.000926244314089078,0.0014697671812634,-2.00275017464122e-05,-5.73489674040562e-05
0.000920963342247208,0.00147355803689707,-2.47734444512772e-05,-5.08174968943731e-05
0.000915730054124001,0.00147823104132599,-2.9363590998861e-05,-4.63073656414258e-05
0.000912237221731974,0.00148160466442136,-3.34203913998732e-05,-4.38523141752059e-05
0.000910925919468756,0.00148297557133291,-3.56233334712981e-05,-4.08706252172449e-05
0.000910675579945778,0.00148420342708846,-3.43730633523289e-05,-3.72490721885443e-05
0.000916063840154638,0.00149016389192128,-2.94535337355962e-05,-3.3618077941562e-05
0.000923609788632976,0.00149397858941427,-2.25113428634311e-05,-2.88336678787568e-05
0.000929939802285421,0.00149773368225894,-1.56063876952622e-05,-2.24824572969341e-05
0.000936138685711544,0.0015039921703334,-9.75625187366377e-06,-1.69935657121313e-05
0.000940239485516517,0.00150690087717181,-4.93977897306868e-06,-1.42365088223039e-05
0.000945329722483738,0.00150804528641971,-6.39697730536362e-07,-1.23992867193994e-05
0.000950074252490655,0.0015092969840346,4.06009901099458e-06,-9.08671500726464e-06
0.000955319461543528,0.00151411303961951,1.00805648734206e-05,-5.29386687174436e-06
0.000963139591404175,0.00151624688602965,1.72328754618644e-05,-3.37761186875018e-06
0.000969421921337957,0.00151474484889179,2.38615806037551e-05,-3.15408400677145e-06
0.000974297581571196,0.00151478061168078,2.8258936167165e-05,-3.11467688237917e-06
0.000976121483810036,0.0015141488024085,3.02024831324643e-05,-3.67508991537538e-06
0.000975775776849733,0.00151208648157635,3.05223553813746e-05,-6.04735721529226e-06
0.00097551351639709,0.00150774726317807,2.93874216036606e-05,-9.64742275360404e-06
0.000972425995613694,0.00150282391922616,2.58435046707547e-05,-1.37977275874465e-05
0.000964689312260706,0.00149763831482162,1.9393128422626e-05,-1.97915133722955e-05
0.000957882461421636,0.0014906407291079,1.15887446357199e-05,-2.72596987182397e-05
0.000951588210558188,0.00148559817585934,5.32874860167719e-06,-3.06882279968921e-05
0.000948762950227436,0.00149245271041707,2.15417275224706e-06,-2.47824307997234e-05
0.000946950968918262,0.00150560149583825,5.68976453011648e-07,-1.21165571744136e-05
0.000943899210923863,0.0015168906162316,-2.14291197266339e-06,3.36336001805835e-08
0.000940895136648126,0.00152777442501631,-6.35434040939511e-06,9.54639913079113e-06
0.000937795694935065,0.00153682241063252,-9.55608147413432e-06,1.95993385163682e-05
0.00093606716013355,0.00154675254504398,-1.02084831407936e-05,2.89924162969231e-05
0.000936484392671847,0.00154979238210871,-1.08410577982247e-05,3.04282403510964e-05
0.000932812746334836,0.00153973111747093,-1.53339352297635e-05,2.15315629775228e-05
0.00092397933745261,0.00152897843891254,-2.33986607283129e-05,1.07119646536518e-05
0.000917625481940835,0.00152785787152397,-2.99468023066341e-05,7.35208708226047e-06
0.000917708928448494,0.0015309692341667,-3.06285544400336e-05,1.1185520744638e-05
0.000922417695666414,0.00153578528975161,-2.63514409481603e-05,1.58823790189151e-05
0.000926697309416372,0.00153888473146467,-2.14062483589279e-05,1.81982249999792e-05
0.00093048816505004,0.00154038676860254,-1.85418005394361e-05,1.81761334119428e-05
0.000932097490554898,0.00153626212693823,-1.71020284866822e-05,1.47766115966859e-05
0.000934219416035379,0.00152988442956712,-1.50505900948127e-05,8.07513418326367e-06
0.000938427504207343,0.00152698764365838,-1.15418919172377e-05,3.04899620128248e-06
0.000941479262201742,0.00152777442501631,-7.77315117369267e-06,4.42198752292906e-06
0.000945043620171763,0.00153281697826487,-5.80265178738942e-06,9.32594787571946e-06
0.000944244917884166,0.00153695354085884,-6.0112192640096e-06,1.13878676238959e-05
0.000944411810899485,0.0015354753455803,-5.78281953917841e-06,1.06584910198494e-05
0.00094959741530403,0.00153843173613737,-2.06422352412988e-06,1.25167618750754e-05
0.00095555788013684,0.00154370078704958,4.56604370226393e-06,1.72773133633218e-05
0.000961172638009348,0.0015457035032334,1.03202579409533e-05,1.86042458233697e-05
0.000965642986633955,0.00154093513136715,1.33756375826267e-05,1.36758630621676e-05
0.000968265591160392,0.00153596410369659,1.61909989490652e-05,7.88704207925753e-06
0.000972306786317038,0.00153528461070565,2.10187045254818e-05,6.65117904020111e-06
0.000978076516275198,0.00153706082922583,2.55496584024222e-05,8.32112353905374e-06
0.000978922902281457,0.00153790721523209,2.58584320086814e-05,8.47118781775287e-06
0.00097417837227454,0.00153617868043057,2.21778449679206e-05,6.22494688699781e-06
0.000971090851491144,0.00153272161082754,1.85502480905172e-05,2.78059410204767e-06
0.000970733223601176,0.00152857312730391,1.73401608292449e-05,-2.10757482643767e-06
0.000970053730610235,0.00152230271829979,1.71017809119562e-05,-8.38607747937226e-06
0.000968372879527383,0.00151742705806655,1.57328970339066e-05,-1.37540196897261e-05
0.000966107902890915,0.00151449450936881,1.2847268614006e-05,-1.68078017330109e-05
0.000962293205397916,0.00151214608622468,8.84265010541322e-06,-1.91623258140233e-05
0.000957262573079024,0.00151010760725186,4.42622318225697e-06,-2.17087956328581e-05
0.000954806861567906,0.00150935658868292,1.5001815131601e-06,-2.24934155243304e-05
0.000954711494130581,0.00150959500727624,1.66140168571331e-06,-2.16829819796303e-05
0.000956106242901459,0.00150775918410773,2.91534180312674e-06,-2.45104823608448e-05
0.000953579005812347,0.0014974356590173,5.64559622388533e-07,-3.43773178020918e-05
0.000945484694569391,0.00148503789216506,-7.24868411956401e-06,-4.60036030326183e-05
0.00093606716013355,0.00148142585047638,-1.69989734394855e-05,-5.08238462196054e-05
0.000928366239569559,0.0014838100364095,-2.39846887147679e-05,-4.74046784472221e-05
0.000925815160621116,0.001489532082649,-2.69814492310729e-05,-4.14204080916503e-05
0.000924491937428232,0.00149409779871093,-2.74394824216896e-05,-3.67330802102317e-05
0.000926113183862757,0.00149964103100544,-2.63651535911987e-05,-3.1909478522725e-05
0.000927722509367615,0.00150445708659035,-2.39516477296757e-05,-2.4929981542752e-05
0.000930726583643352,0.00151396998846352,-2.05604264176697e-05,-1.5736731449905e-05
0.00093606716013355,0.00152740487619667,-1.60068279229221e-05,-3.52476265734568e-06
0.000941503104061073,0.0015418888057404,-9.14385195140849e-06,1.34700264464456e-05
0.000950491485028951,0.00156151065597002,-1.47938047113436e-08,3.39841423149515e-05
0.000959682521801145,0.00158326635260977,8.77892242696446e-06,5.32739312824487e-05
0.000965070782010006,0.00159517536134573,1.47458696326237e-05,6.78331959263987e-05
0.000967717228395774,0.00160331735630735,1.84890653895351e-05,7.74217812060192e-05
0.000971901474708407,0.00160927782114016,2.21595013981394e-05,8.20099557694629e-05
0.000975298939663108,0.00160764465377597,2.59742091746129e-05,8.06355376780455e-05
0.000977158604690945,0.00159828672398846,2.83715191610994e-05,7.43330821843399e-05
0.000976908265167967,0.0015913010592044,2.88332701988176e-05,6.63743539049224e-05
0.000976646004715324,0.00158323058982078,2.82876249509624e-05,5.81681805394264e-05
0.000974762497828156,0.00157148847410014,2.71140121823119e-05,4.84680459121524e-05
0.000972676335136672,0.00156073579554175,2.4981047421097e-05,3.80752775189402e-05
0.000969028530658992,0.00155388126098402,2.25823172565202e-05,3.14082584980517e-05
0.000968241749301061,0.0015529871912591,2.1358973999964e-05,3.09924762330034e-05
0.00096783643769243,0.00155391702377302,2.11758175414264e-05,3.34634962838861e-05
0.000966036377312921,0.00155417928422566,2.01355473295933e-05,3.33853653019871e-05
0.00096236473097591,0.00154794463801054,1.72064502283287e-05,2.84328808926974e-05
0.000959467945067164,0.00153840789427804,1.34690023059254e-05,1.90168336821262e-05
0.000955200252246872,0.00152443656470994,1.01739188677018e-05,6.07448130440255e-06
0.000951445159402201,0.00150996455609587,6.86158341656981e-06,-8.36502318187723e-06
0.000946688708465618,0.00149544486376315,2.00490258604252e-06,-2.1749545088672e-05
0.000938618239081993,0.00148158082256203,-5.46658236972713e-06,-3.50661982892051e-05
0.000928974206982506,0.00146410473967223,-1.56154232832738e-05,-5.29695904333039e-05
0.000916349942466613,0.0014397025966467,-2.73650820085803e-05,-7.6039213121658e-05
0.000904560143027314,0.00141875752322421,-3.84462182074758e-05,-9.58335824590513e-05
0.000897991710781557,0.00141320237000003,-4.64257924728428e-05,-0.000102508049584511
0.000892949157532999,0.0014191747557625,-5.04159295287389e-05,-9.59636197047346e-05
0.00089133983202814,0.00142779358791075,-5.13717605461155e-05,-8.51176002909649e-05
0.000892436557557378,0.00143669852237097,-5.07086303043358e-05,-7.72931959637026e-05
0.000894653850475183,0.0014415741826042,-4.93009166778908e-05,-7.28249875455221e-05
0.000895011478365152,0.0014435530569287,-4.76327993970764e-05,-6.92426793133598e-05
0.000896680408518339,0.00144658097306377,-4.57452345608086e-05,-6.52753605308578e-05
0.000901055389705622,0.00145388850294879,-4.27092603130945e-05,-5.95764022471341e-05
0.000906264835969498,0.00146309146065065,-3.70536664708767e-05,-4.99477971455949e-05
0.00091437106814212,0.00147497662752727,-2.81729366317336e-05,-3.60417793924244e-05
0.000926232393159413,0.00149179705928547,-1.69313090271401e-05,-2.02827977212528e-05
0.00093876129023798,0.00150774726317807,-4.99147026159591e-06,-4.8138572878009e-06
0.000949549731585367,0.0015222311927218,5.87392373335191e-06,1.02220260819654e-05
0.000957298335868021,0.00153514155954966,1.42620293808345e-05,2.46181478544998e-05
0.000963676033239128,0.00154893407517279,2.01147250062111e-05,3.68794461131438e-05
0.000970053730610235,0.00155861387006127,2.51828240877672e-05,4.61265108007755e-05
0.00097562080476408,0.00156395444655147,3.14229294779646e-05,5.31956025311001e-05
0.000982081948642847,0.00157041559043024,3.88165781803386e-05,5.91223072863879e-05
0.000991034566821728,0.0015764952645597,4.55853158568478e-05,6.430300256974e-05
0.000996029436351623,0.00158090600853598,5.02486335838561e-05,6.91249638151742e-05
0.000996565878186576,0.00158462533859166,5.22893199021203e-05,7.30872664695906e-05
0.000996565878186576,0.00158474454788831,5.11918284870603e-05,7.35936320623102e-05
0.000993490278332846,0.00158159742245659,4.66101500001088e-05,6.86971187138727e-05
0.000985860883346849,0.00157283553915236,3.96540688774564e-05,6.08413020366827e-05
0.000978326855798176,0.00156531343253335,3.22714982147986e-05,5.40158614412957e-05
0.000972223339809378,0.00156000861883215,2.49222784266884e-05,4.70597453457975e-05
0.00096418863321475,0.00154724130316027,1.65160566246507e-05,3.46765509587134e-05
0.000955116805739212,0.00152848968079625,7.15354933458693e-06,1.63346957335129e-05
0.000947189387511574,0.00151194343042036,-9.51037398433466e-07,-1.36615950816424e-06
0.000941801127302714,0.00149838933339055,-6.27960982999248e-06,-1.40201686442698e-05
0.000940001066923205,0.00148767241762116,-1.01230507304003e-05,-2.56380579546236e-05
0.000934934671815316,0.00147286662297646,-1.46918094931993e-05,-4.09683401449661e-05
0.000928735788389193,0.00145701178652118,-2.04589712582422e-05,-5.61203027743549e-05
0.000924193914186592,0.0014500380426668,-2.64983080333553e-05,-6.28877720453371e-05
0.000919854695788306,0.00145558127496131,-3.19684336538097e-05,-5.97379755631809e-05
0.00091524129600771,0.00146151789793479,-3.57803773067428e-05,-5.22826032277742e-05
0.000915074402992392,0.00146882542781981,-3.61569024776564e-05,-4.42623855692088e-05
0.00092052226784958,0.00148115166909407,-3.24313673777543e-05,-3.43832974585807e-05
0.000926971490798681,0.00149325141270467,-2.64797515565546e-05,-2.19157413521331e-05
0.000931835230102255,0.00150457629588701,-2.06022903035848e-05,-9.24740277840842e-06
0.000939106997198283,0.00151739129527755,-1.46738465244034e-05,2.35015539652885e-06
0.000947606620049871,0.00153068313185472,-7.23876660187174e-06,1.42910659380301e-05
0.00095583206151915,0.0015411258662418,1.13832374150344e-06,2.63287548309687e-05
0.000962388572835241,0.00155026921929534,7.77466687954754e-06,3.51852961915478e-05
0.000967121181912492,0.00155631313063581,1.11400411158068e-05,3.94889439029685e-05
0.00096851593068337,0.00155760059103969,1.22938188415325e-05,4.19848405152911e-05
0.000969123898096317,0.00156060466531543,1.2773997737834e-05,4.45562647056082e-05
0.000969624577142273,0.00156110534436139,1.28437440180926e-05,4.47376041101879e-05
0.000970017967821238,0.00155682573061143,1.23738242839644e-05,3.97949287171901e-05
0.00096927887018197,0.00154711017293395,1.17912176213143e-05,3.1112487442883e-05
0.000969564972493945,0.00153905162447999,1.12049599023529e-05,2.17312349577429e-05
0.000968051014426411,0.00152930030401351,9.78766437123766e-06,1.21858346494026e-05
0.000966131744750246,0.0015184164952288,7.02206884736561e-06,1.68720815746005e-06
0.000962805805373538,0.00150902280265229,3.8054339328117e-06,-8.62907453393268e-06
0.00096111303336102,0.00150120267279164,1.57032021377499e-06,-1.64238391028008e-05
0.00096092229848637,0.00149655351022205,9.27123555860554e-07,-2.07540440908723e-05
0.000961613712406976,0.00149557599398947,1.63810244133319e-06,-2.2120078832141e-05
0.000963282642560163,0.00149648198464405,3.06494288456746e-06,-2.1752703194515e-05
0.000964796600627696,0.00149561175677846,4.00189721316354e-06,-2.23411734991192e-05
0.00096380716346545,0.00149104604071653,2.96272055284121e-06,-2.66811968726549e-05
0.000960338172932754,0.00148494252472773,-4.22808932257031e-07,-3.33798734469759e-05
0.000956416187072765,0.001481902687663,-4.84867109759778e-06,-3.70036642166507e-05
0.000952172336111804,0.0014822841574123,-8.98010182036134e-06,-3.55695904953354e-05
0.000948500689774793,0.00148336896201187,-1.30934029435187e-05,-3.47098284234257e-05
0.00094317203421426,0.00147933968778489,-1.81121844343568e-05,-4.00257933947498e-05
0.000937783774005399,0.00147104272073762,-2.34426400018667e-05,-4.7678397439851e-05
0.000934696253222004,0.00146940955337343,-2.69568421761296e-05,-4.79178592653266e-05
0.000934529360206685,0.00148249873414628,-2.72052063778961e-05,-3.72168261857964e-05
0.00093595987176656,0.00149688729625269,-2.47666497210031e-05,-2.1976082182191e-05
0.000940191801797855,0.00150765189574074,-2.12416097448701e-05,-1.02792893450461e-05
0.000943708476049213,0.00151400575125252,-1.76123417842918e-05,-4.66145843588079e-06
0.000946915206129265,0.00151572236512437,-1.37680982138497e-05,-3.2801950471862e-06
0.000951755103573507,0.00151556739303871,-9.0184105955641e-06,-3.15595015710188e-06
0.000957179126571365,0.0015168190906536,-2.86760778303744e-06,-7.01112334039931e-07
0.000964736995979368,0.00152547368559084,4.19714337400877e-06,6.66394779873238e-06
0.000970304070133213,0.00153598794555592,1.05869485432804e-05,1.73211046999846e-05
0.00097398763739989,0.00154442796375918,1.49149131648694e-05,2.70575226411927e-05
0.000976431427981342,0.00155282029824378,1.75618363963169e-05,3.506054707281e-05
0.00097907787436711,0.00156263122335858,2.0148110891382e-05,4.43847141736888e-05
0.000980782567309294,0.00157190570663844,2.31288380953629e-05,5.4804553342125e-05
0.0009822369207285,0.00157665023664535,2.49204647890261e-05,5.9905674255322e-05
0.000981044827761938,0.00157232293917673,2.42737033576631e-05,5.47809817789875e-05
0.000979113637156107,0.00155906686538856,2.27003868538291e-05,4.31309725550243e-05
0.000978624879039817,0.00154912481004744,2.31462801779154e-05,3.27711768314643e-05
0.00098079448823896,0.00154254445687201,2.63352511636218e-05,2.66192298213383e-05
0.000983846246233359,0.00153707275015549,2.96705549224725e-05,2.20019110342246e-05
0.000983512460202721,0.00153157720157964,3.00470790343504e-05,1.66112854203345e-05
0.000979030190648448,0.00152529487164586,2.67508552872173e-05,1.06540695531607e-05
0.000972724018855334,0.00151808270919816,2.1217807036618e-05,4.33871633615436e-06
0.00096563106570429,0.00151098975604712,1.5012917103041e-05,-2.36750226281845e-06
0.00095890766137288,0.00150489816098798,8.8740573304607e-06,-7.86286293595456e-06
0.000951981601237154,0.00150209674251656,3.07534591919428e-06,-1.05412835883026e-05
0.000945341643413403,0.00149939069148247,-2.1806223799772e-06,-1.18761024984403e-05
0.000940299090164845,0.00149641045906606,-6.52672454208895e-06,-1.4243364859528e-05
0.000937354620537437,0.00149463424054588,-9.18214240779335e-06,-1.63963732726244e-05
0.000934934671815316,0.00149391898476595,-9.55240184752597e-06,-1.56089827100361e-05
0.000934672411362672,0.00149374017082096,-8.68386739191523e-06,-1.41927335395563e-05
0.000934064443949726,0.00149080762212322,-9.29798816942605e-06,-1.84058650762462e-05
0.000928711946529862,0.0014784694599193,-1.32031598838253e-05,-2.90935666515466e-05
0.00092071300272423,0.00146732339068195,-1.90393307570654e-05,-3.82434716919688e-05
0.000916624123848922,0.00146884926967915,-2.37167820827215e-05,-3.79022372173371e-05
0.000912523324043949,0.00147612103677517,-2.57519041105395e-05,-2.90344556951569e-05
0.000911366993866384,0.00148562201771867,-2.58382000102558e-05,-1.85372534132522e-05
0.000912463719395621,0.00149252423599507,-2.44050420336394e-05,-1.07469135986986e-05
0.000914323384423458,0.00149765023575129,-2.06245860220775e-05,-5.59522669930103e-06
0.000919628198124659,0.00149950990077912,-1.45449920866396e-05,-2.46716325890082e-06
0.000925374086223488,0.00149990329145809,-8.43640490824757e-06,-1.10266161483803e-06
0.000927472169844637,0.00150092849140933,-4.49895750442433e-06,6.21932810912552e-07
0.000929164941857156,0.0015062094632512,-2.09831979628357e-06,5.81734904305384e-06
0.000931513365001283,0.00151335010012091,1.26879203468445e-06,1.51712802322724e-05
0.0009366393647575,0.00152566442046549,6.61013633760409e-06,2.68263490408691e-05
0.000940382536672505,0.00153619060136024,1.22430080906733e-05,3.89599342850181e-05
0.000943470057455901,0.00154677638690331,1.58236340252881e-05,4.96515487727673e-05
0.000943648871400885,0.00155102023786427,1.65602235152485e-05,5.51170174201599e-05
0.000941884573810373,0.00154824266125218,1.54767476917098e-05,5.20873391305999e-05
0.000939703043681564,0.00153745421990479,1.44695834250063e-05,4.2570260523464e-05
0.000939798411118889,0.00152692803901005,1.52115139828915e-05,3.29701570243788e-05
0.000942432936574992,0.00152227887644046,1.80298983531276e-05,2.7450249222004e-05
0.000945198592257416,0.00151844033708813,2.13918986792517e-05,2.47282389809695e-05
0.000945985373615347,0.00151417264426784,2.30019084881899e-05,2.1945717991425e-05
0.000943970736501857,0.00151170501182705,2.18089098376359e-05,1.84901698565192e-05
0.000941491183131408,0.00150792607712305,1.87400746551391e-05,1.47642924939458e-05
0.00093770032749774,0.00150228747739121,1.5365247572256e-05,1.03207518573183e-05
0.000932920034701826,0.00149614819861342,1.21173035126563e-05,5.11630996624143e-06
0.000929486806958127,0.00149290570574437,7.94867831033429e-06,2.97753342795033e-08
0.000923621709562642,0.00148662337581059,1.64562324737291e-06,-5.72024061280524e-06
0.000914585644876101,0.0014758706972522,-6.42378957659883e-06,-1.4952890613207e-05
0.000906705910367126,0.00146309146065065,-1.38583314615838e-05,-2.80142338486545e-05
0.000903642231443061,0.00145297059136454,-1.81025643779542e-05,-4.06089565498864e-05
0.000902438217546834,0.00144256361976645,-1.9314557707088e-05,-4.92290807943114e-05
0.000900101715332372,0.0014340163131962,-2.08536293109159e-05,-5.6474749029374e-05
0.000895917469019739,0.00142656573215519,-2.59903985238822e-05,-6.70987361757637e-05
0.000887870841495445,0.00141351231417133,-3.42577183328257e-05,-8.00474849259627e-05
0.000880932860430053,0.00140315302629191,-4.19309545938046e-05,-8.86160767119068e-05
0.000876498274594442,0.00140522726805373,-4.60256698477038e-05,-8.84661527934054e-05
0.000876474432735111,0.00141290434675839,-4.67485983412983e-05,-8.18987988611511e-05
0.000878500990778267,0.00142042645337739,-4.58985576754034e-05,-7.37961961167343e-05
0.000880324893017107,0.00142818697858971,-4.42412598384755e-05,-6.66314036090876e-05
0.000883722357971809,0.00143613823867668,-4.12785380194699e-05,-6.02288379889571e-05
0.000889349036773982,0.00144277819650043,-3.65232255200574e-05,-5.32147044067989e-05
0.000897324138720282,0.00145410307968277,-2.96939096976149e-05,-4.30839387987037e-05
0.000907707268459038,0.00147179373930655,-2.01174642062573e-05,-2.71530236836255e-05
0.000920307691115599,0.00149227389647209,-7.40198776148832e-06,-5.33189254960168e-06
0.000936627443827834,0.00151865491382211,6.93943765976301e-06,1.90178585136712e-05
0.000950229224576308,0.00154340276380794,1.9493513809449e-05,4.16676264741945e-05
0.000958156642803946,0.00156072387461209,2.73726400405066e-05,5.99196959616785e-05
0.000963056144896516,0.00157449254837588,3.06307877552694e-05,7.26912036180292e-05
0.000965523777337299,0.00158424386884236,3.20607309712691e-05,8.03959170560098e-05
0.000969302712041301,0.00159012088716751,3.45544932468959e-05,8.50867637023344e-05
0.000973916111821896,0.00159330377538823,3.85579480494947e-05,8.85070336700688e-05
0.00097858911625082,0.00159533033343138,4.19635905459537e-05,8.94869682350157e-05
0.000980782567309294,0.00159364948234853,4.24841393001673e-05,8.54847559790094e-05
0.000979173241804435,0.00158623466409651,4.00512518433001e-05,7.71049000431521e-05
0.000976634083785658,0.00157679328780134,3.66123135574445e-05,6.83892025006376e-05
0.000975167809436787,0.00157251367405138,3.36244604950847e-05,6.18123034602646e-05
0.000973653851369253,0.00156842479517608,3.04063570329006e-05,5.57962437938083e-05
0.000968861637643673,0.00156037816765178,2.53942786695329e-05,4.82032530984307e-05
0.000963759479746787,0.00155274877266578,1.848695632286e-05,3.91389032647349e-05
0.000957882461421636,0.00154368886611991,1.1389879608313e-05,2.88447327159772e-05
0.000953686294179338,0.00153262624339022,5.81658942848684e-06,1.63992796606297e-05
0.000950348433872964,0.0015191794347274,2.05246097255313e-06,2.85005342646146e-06
0.000949633178093027,0.00151001223981453,-7.84882284355493e-07,-8.0607081389165e-06
0.000947260913089568,0.00150276431457784,-3.87030246035982e-06,-1.5778816107984e-05
0.000944113787657844,0.00149312028247835,-8.20891889648396e-06,-2.6216696179041e-05
0.000939440783228921,0.00147680052976611,-1.4198137829124e-05,-4.43342955286026e-05
0.000933170374224804,0.00145576008890629,-2.10658736917265e-05,-6.5381687518767e-05
0.000929188783716487,0.0014427185918521,-2.71739674205414e-05,-7.87800991401309e-05
0.000924980695544523,0.00144312390346074,-3.14389967298052e-05,-8.02764632495575e-05
0.000923502500265986,0.00144848832181026,-3.42459939842609e-05,-7.55388710247439e-05
0.00092262035147073,0.00145215996814728,-3.65046559157936e-05,-7.16619735239242e-05
0.000921773965464471,0.00145442494478374,-3.79988310236466e-05,-6.99400521114961e-05
0.000923538263054983,0.00145851382365905,-3.72689934423476e-05,-6.80103732715607e-05
0.000928270872132234,0.00146152981886445,-3.32489334268476e-05,-6.43694810608638e-05
0.000936019476414888,0.00146741875811927,-2.65807467088658e-05,-5.83276273514749e-05
0.000944745596930122,0.00147860059014562,-1.90437147711446e-05,-4.89023010410744e-05
0.000951850471010832,0.00149089106863088,-1.19459030471744e-05,-3.64525831275631e-05
0.000959312972981511,0.00150418290520805,-5.39790214266682e-06,-2.32070524865752e-05
0.000967276153998146,0.00151797542083117,9.97532289415089e-07,-1.01734417039516e-05
0.000973284302549619,0.00153179177831362,7.23950645793284e-06,4.21879352995525e-06
0.000979638158061394,0.00154898175889145,1.28923764760852e-05,2.03370508644173e-05
0.000985181390355908,0.0015627981163739,1.76078112938449e-05,3.45077018913465e-05
0.000989627897121185,0.00157094011133552,2.13785261587626e-05,4.26818895773527e-05
0.000993108808583546,0.00157349119028397,2.44809631907269e-05,4.55241604352345e-05
0.000995969831703295,0.00157591113900609,2.74303792248039e-05,4.73012647556674e-05
0.00100020176173459,0.0015787840830555,3.06378637869207e-05,5.06922100048917e-05
0.00100365883133762,0.00158280143635282,3.35907997089911e-05,5.51185282232606e-05
0.00100462442664054,0.00158689031522812,3.47470471482904e-05,5.94574958093044e-05
0.00100336080809598,0.00159132490106373,3.31807516389219e-05,6.36719812090005e-05
0.00100067859892122,0.0015943528171988,3.02168647803063e-05,6.7433429841242e-05
0.000999474585024988,0.00159530649157205,2.81086835848214e-05,6.90307659064668e-05
0.000997352659544507,0.00159273157076428,2.66863283341674e-05,6.6290191315642e-05
0.00099337106903619,0.00158295640843847,2.29031297289358e-05,5.79192741975696e-05
0.000986635743775114,0.00157011756718859,1.50446744836654e-05,4.45145838032013e-05
0.000977647362807236,0.00155379781447636,6.17143993315644e-06,2.93633632668051e-05
0.00097186571191941,0.00154033908488387,1.22060743307122e-06,1.71388187116785e-05
0.000971710739833757,0.00153307923871751,8.59395374228492e-07,9.49075737986379e-06
0.000971853790989744,0.00152475842981091,3.69891588850796e-07,2.18990874312882e-06
0.000966477451710549,0.00151072749559447,-4.72467523879884e-06,-1.07556191030813e-05
0.000956547317299087,0.00149165400812948,-1.37107217766839e-05,-2.94455566302516e-05
0.000948023852588168,0.00147285470204679,-2.23625598420087e-05,-4.67179094154899e-05
0.000943291243510916,0.00146455773499952,-2.79257998579641e-05,-5.55656549442049e-05
0.000939345415791596,0.00146253117695637,-3.07373699051811e-05,-5.61361080251933e-05
0.000937748011216403,0.00146250733509703,-3.19083612027646e-05,-5.40084188259756e-05
0.000937879141442724,0.0014640808978129,-3.16332154335404e-05,-5.32932821237838e-05
0.000940203722727521,0.00146306761879132,-3.00252948046549e-05,-5.35461708991115e-05
0.000941205080819433,0.0014621735490664,-2.78948456067516e-05,-5.23571072054899e-05
0.000942266043559673,0.00146511801869381,-2.57516171356992e-05,-4.82154644070669e-05
0.000946140345701,0.00147385606013871,-2.28478050623301e-05,-4.05375312392878e-05
0.000950622615255273,0.00148334512015254,-1.80569719392246e-05,-2.90917761863586e-05
0.000955855903378481,0.00149617204047275,-1.14243978125937e-05,-1.45845557051573e-05
0.000962960777459191,0.00151215800715435,-4.33786559339369e-06,1.09980414657052e-06
0.000968992767869995,0.00152553329023917,1.69227656468128e-06,1.58717868854008e-05
0.000973010121167309,0.00153748998269379,6.13571961681385e-06,2.80768611492024e-05
0.000975799618709065,0.00154423722888453,9.52024044124812e-06,3.62957279703775e-05
0.000978040753486201,0.00154671678225498,1.26924573453544e-05,3.98200617472675e-05
0.00098166471610455,0.00154666909853632,1.59039443231202e-05,3.96336601965318e-05
0.000984215795052993,0.00154374847076824,1.84570197244194e-05,3.76556508602491e-05
0.000983321725328071,0.00153976688025992,1.93780433840295e-05,3.46528694443383e-05
0.000982677995126128,0.00153387794100511,1.86182748562567e-05,3.02914007336167e-05
0.000982129632361509,0.00153038510861308,1.74877193390974e-05,2.56227350522924e-05
0.000981068669621269,0.00152697572272871,1.76675082732638e-05,2.35849624126033e-05
0.000982165395150506,0.00152782210873497,1.96881381254845e-05,2.57880540526042e-05
0.000985443650808552,0.00153241166665624,2.23491494170655e-05,3.00924515149346e-05
0.000986135064729158,0.00153402099216109,2.35628264889675e-05,3.23401025127332e-05
0.000983393250906065,0.0015308619457997,2.18041181170526e-05,2.91676860804325e-05
0.00097877985112547,0.00151950129982837,1.70618653485294e-05,1.88164207728889e-05
0.000972020684005063,0.0015020132960089,1.08221928559675e-05,2.14525823167838e-06
0.000966107902890915,0.0014853359154067,5.23966552697033e-06,-1.54017286541544e-05
0.000962543544920894,0.00147448786941098,1.84302155363983e-06,-2.62846121881967e-05
0.000960385856651417,0.00146968373475574,3.02671988404597e-07,-2.90935405522104e-05
0.000957882461421636,0.00146741875811927,-1.81240721653053e-06,-3.20296722720138e-05
0.000952374991916119,0.00145713099581784,-7.5323758199046e-06,-4.36154952679635e-05
0.000941407736623748,0.00143797406184519,-1.79211137428055e-05,-6.11234242547717e-05
0.000927996690749925,0.00142577895079726,-3.06353594445887e-05,-7.31756499727094e-05
0.000917685086589163,0.00142698296469348,-4.1208156390038e-05,-7.346452534198e-05
0.000912702137988933,0.00143278845744064,-4.61021165909778e-05,-6.64893552902638e-05
0.000912869031004252,0.00144093045240226,-4.49169775975596e-05,-5.91022263856796e-05
0.000917947347041806,0.00144795187997531,-4.01441962126991e-05,-5.24195405287454e-05
0.000923121030516686,0.00145542630287566,-3.49793053120141e-05,-4.45655606220329e-05
0.000926327760596738,0.00146456965592919,-3.08399550904181e-05,-3.5792754249151e-05
0.000931096132462986,0.00147521504612059,-2.63706659416905e-05,-2.65598721038184e-05
0.000938499029785337,0.00148695716184122,-1.90676809079675e-05,-1.44302048298152e-05
0.000948119220025493,0.00150308617967881,-8.46665008798336e-06,2.3436310736437e-06
0.00095939641948917,0.00152301797407973,2.56082507266347e-06,2.04356010785011e-05
0.000967872200481427,0.00153863439194169,1.05302425510683e-05,3.473260236749e-05
0.000971174297998804,0.001546466442732,1.51377157233914e-05,4.41583552480156e-05
0.000975728093131071,0.00155351171216438,1.90936560325262e-05,5.05795698175868e-05
0.000980484544067654,0.00155957946536419,2.40839292712015e-05,5.40017401905286e-05
0.000985097943848249,0.00155859002820194,2.85510893127135e-05,5.31291112005538e-05
0.000986349641463139,0.00155342826565673,3.03047789311346e-05,4.92931933607282e-05
0.000985455571738217,0.00155187854480019,2.9644639911339e-05,4.53916635611426e-05
0.000985014497340589,0.00154932746585175,2.82308171287832e-05,4.15449294373472e-05
0.000982022343994519,0.00154314050335529,2.61522174693248e-05,3.58646394806122e-05
0.000978136120923526,0.00153671512226552,2.25491111653317e-05,2.91148471320246e-05
0.000975298939663108,0.00153372296891945,1.86958184347167e-05,2.44959888100275e-05
0.000973475037424268,0.00153265008524955,1.75687790780357e-05,2.263772653065e-05
0.000975310860592774,0.00153067121092505,1.94896509600581e-05,2.05243919678313e-05
0.000976932107027298,0.00152654656926075,2.06448162818746e-05,1.58271219267176e-05
0.000973737297876912,0.00152121791370022,1.7662571777873e-05,9.16245892657186e-06
0.000967967567918752,0.00151394614660419,1.20055297297222e-05,2.01999298752957e-06
0.000964236316933412,0.00150949963983891,7.78250449188029e-06,-4.32280863542732e-06
0.000962507782131897,0.00150554189118993,6.24957101982096e-06,-8.12877653518452e-06
0.000960624275244729,0.00150398024940373,4.72766870266809e-06,-9.33959333083195e-06
0.000957596359109661,0.00150338420292045,5.44401103225323e-07,-1.23657838357452e-05
0.000950026568771992,0.00149469384519421,-6.26958101699162e-06,-2.21704191872913e-05
0.000942075308685023,0.00147804030645134,-1.43607987393948e-05,-3.65228905274879e-05
0.000934195574176048,0.00147004136264571,-2.27413441961993e-05,-4.6485132260445e-05
0.000927019174517344,0.00147284278111713,-3.00973253794222e-05,-4.63762203988051e-05
0.000922381932877417,0.00147784957157669,-3.43738500662381e-05,-3.96139232340346e-05
0.000922381932877417,0.0014837742736205,-3.47627157730555e-05,-3.31174230935164e-05
0.000924658830443551,0.00148992547332796,-3.30825012715967e-05,-2.98579606893471e-05
0.000925648267605797,0.00149158248255148,-3.15828094499582e-05,-2.89228705281064e-05
0.000927889402382934,0.00148968705473465,-2.99806340164528e-05,-2.86724595748246e-05
0.000931596811508942,0.0014929653103927,-2.61910999225165e-05,-2.65891526737408e-05
0.000938797053026977,0.00150256165877352,-1.95889693229509e-05,-1.93352522493378e-05
0.000946354922434981,0.00151381501637787,-1.1844829084015e-05,-6.58382774193971e-06
0.000953960475561647,0.00152741679712634,-4.47563513420973e-06,7.39518030355478e-06
0.000961875972859619,0.00154054174068819,2.68260651953087e-06,1.86942466372148e-05
0.000968682823698689,0.00154945859607807,9.89922151447133e-06,2.77220787512751e-05
0.00097523933501478,0.00155640849807313,1.59622491529537e-05,3.55363024585126e-05
0.000979375897608751,0.00156145105132169,1.94726899302462e-05,3.96923911211333e-05
0.000980484544067654,0.00156009206533981,2.0966304542808e-05,3.79440039624918e-05
0.000982654153266797,0.00155453691211563,2.23421821704754e-05,3.34562190044217e-05
0.000984656869450621,0.00155346402844572,2.42237106495573e-05,3.14399827181745e-05
0.000985622464753536,0.00155404815399934,2.49845593143304e-05,3.20631519646838e-05
0.000983905850881687,0.00155237922384615,2.27850425377158e-05,3.14394084920207e-05
0.000979256688312095,0.001550352665803,1.79769669016894e-05,2.86775745120112e-05
0.000974726735039159,0.00154871949843881,1.30450657603411e-05,2.70103650073663e-05
0.000972342549106034,0.00154863605193115,1.03485236974243e-05,2.80317460805787e-05
0.000972330628176369,0.00155026921929534,1.01169446099458e-05,2.93838514434517e-05
0.000973343907197947,0.00154943475421874,1.05179398182333e-05,2.84876226003821e-05
0.000972402153754363,0.00154446372654818,9.51197117747645e-06,2.44808263818693e-05
0.000969696102720267,0.00153659591296887,6.66534530437561e-06,1.64585305357667e-05
0.000967478809802461,0.00152393588566398,3.23950701968026e-06,4.4164313790725e-06
0.000964331684370737,0.00151164540717872,5.91006912365917e-07,-7.76685920124329e-06
0.000962603149569222,0.0015028477610855,-1.39231347489024e-06,-1.56124152497072e-05
0.000960862693838042,0.00149729260786132,-4.2315883185758e-06,-2.14875540440541e-05
0.000956165847549787,0.00148489484100907,-9.36097622944898e-06,-3.29659636329455e-05
0.000947618540979537,0.00146607169306706,-1.67415820164572e-05,-5.10905827599405e-05
0.000941336211045755,0.00145095595425105,-2.47875925511314e-05,-6.59040515050664e-05
0.000935483034579935,0.00144926318223853,-3.14919109182108e-05,-6.80285004738896e-05
0.000929749067410771,0.00145463952151772,-3.56795828425614e-05,-6.02732082329367e-05
0.000929510648817459,0.00146279343740901,-3.73326016863189e-05,-5.25797825564742e-05
0.000930893476658671,0.00146656045118335,-3.68722344138829e-05,-4.88829830811486e-05
0.000932908113772161,0.00146884926967915,-3.43890089612139e-05,-4.50204966320963e-05
0.000937676485638409,0.0014757991716742,-2.97691564266493e-05,-3.76057280502674e-05
0.000944912489945441,0.00148478755264208,-2.33249291784534e-05,-2.81743273969041e-05
0.000953102168625722,0.00149471768705354,-1.57730423776559e-05,-1.82339897525854e-05
0.000961005744994029,0.00150575646792391,-7.53778961010288e-06,-6.12944663598099e-06
0.000970161018977226,0.00151959666726569,1.3700197497282e-06,9.24639494159332e-06
0.000980210362685344,0.00153713235480382,1.05217353323711e-05,2.5747761885577e-05
0.000988376199506295,0.00155140170761357,1.86809655092241e-05,4.08983320589467e-05
0.000994849264314727,0.00156316766519354,2.48205933174217e-05,5.43483848094481e-05
0.000999128878064685,0.00157455215302421,2.9267295012975e-05,6.57560029851292e-05
0.00100378996156394,0.00158231267823652,3.32416989653997e-05,7.30552615148992e-05
0.00100872522644551,0.00158213386429154,3.73022246212813e-05,7.46837137200229e-05
0.00101097828215231,0.00157861719004018,4.06992730805704e-05,7.1490980089341e-05
0.0010133743890151,0.00157226333452841,4.22255565902298e-05,6.51652370368874e-05
0.00101317173321079,0.00156304845589688,4.12327676782805e-05,5.67641916478787e-05
0.00100947624501444,0.00155370244703903,3.78135014309138e-05,4.7638429356412e-05
0.00100395685457926,0.00154460677770417,3.25515446015574e-05,3.93005428369691e-05
0.000998294412988091,0.00153584489439993,2.63349790081261e-05,3.12324657936608e-05
0.000992977678357224,0.00152661809483874,1.9997021853419e-05,2.13338237829039e-05
0.000985658227542533,0.0015138388582372,1.37902726451554e-05,9.69034297615355e-06
0.000979530869694404,0.00150232324018021,7.41314227822246e-06,-9.39177760130096e-07
0.000974071083907549,0.00149434813823391,8.11642705581179e-07,-9.71479684472152e-06
0.000967598019099117,0.00148402461314348,-5.23315645026904e-06,-1.93559699018747e-05
0.00096266275421755,0.00147173413465823,-9.67193152730861e-06,-3.10729613218595e-05
0.000960862693838042,0.00146094569331084,-1.24190763095265e-05,-4.16278313589631e-05
0.000958275852100602,0.00145400771224545,-1.48735211424906e-05,-4.88405700642976e-05
0.000953948554631981,0.00144600876843982,-1.90635698746247e-05,-5.64823512979011e-05
0.000947332438667562,0.00143320568997894,-2.60990591098426e-05,-6.87078046677047e-05
0.000937438067045096,0.00142068871383004,-3.52163067827872e-05,-8.17608778689236e-05
0.000929760988340437,0.0014146686443489,-4.4140610777476e-05,-8.69137554201249e-05
0.000923061425868358,0.00142143973239897,-5.0345637984454e-05,-8.12633691815578e-05
0.00092052226784958,0.00143116721100612,-5.21591176240713e-05,-7.04209508971475e-05
0.00092444425370957,0.00144135960587022,-4.91720651670371e-05,-6.01997886953224e-05
0.00093154912779028,0.0014518381030463,-4.22305661254358e-05,-5.08554005031316e-05
0.000939822252978221,0.00146125563748214,-3.31882199752464e-05,-4.07753134602648e-05
0.000948798713016433,0.00147094735330029,-2.40681064307072e-05,-3.06244759737112e-05
0.000957977828858961,0.00148137816675771,-1.58466830831051e-05,-2.10693672260005e-05
0.000965321121532984,0.00149259576157306,-8.16152184590744e-06,-1.0410616671261e-05
0.000971889553778741,0.00150424250985637,-5.31099476237474e-07,2.337786848908e-06
0.000979960023162366,0.00151748666271488,6.54170468330912e-06,1.50100524913804e-05
0.000985848962417183,0.00152952680167716,1.23595100829954e-05,2.58535240864279e-05
0.000990140497096806,0.00153946885701828,1.75702571687077e-05,3.66719640613781e-05
0.000996756613061226,0.00155202159595618,2.36959333048392e-05,4.91278203257582e-05
0.00100343233367397,0.0015643955209491,3.07657863631886e-05,6.04076812491077e-05
0.00100966697988909,0.00157029638113358,3.65213125258033e-05,6.63480866039982e-05
0.00101147896119827,0.00157074937646087,3.88488932857289e-05,6.71286064088481e-05
0.0010103941565987,0.00157051095786756,3.82762327295538e-05,6.60139349032731e-05
0.00100995308220107,0.00156823406030143,3.69630921937559e-05,6.37088799732784e-05
0.00100804573345457,0.00156310806054521,3.56752592762937e-05,5.80827336188518e-05
0.0010053635242798,0.00155396470749168,3.32083964872491e-05,4.90657665337912e-05
0.00100119119889684,0.00154503593117213,2.89916275454693e-05,3.98322975435338e-05
0.000996911585146879,0.00153843173613737,2.477792016825e-05,3.27544622995483e-05
0.000994873106174058,0.0015339137037941,2.27241461391943e-05,2.74611437778718e-05
0.000994551241073086,0.00152819165755461,2.2575907279776e-05,2.3163297899097e-05
0.000993216096950537,0.00152618894137078,2.19476592580583e-05,1.95533820961353e-05
0.0009913564319227,0.00152213582528447,1.91621609522663e-05,1.49066363634538e-05
0.00098656421819712,0.00151250371411465,1.46917485560739e-05,6.76095300703415e-06
0.000980460702208322,0.00150270470992951,9.63669812644744e-06,-4.50344089274466e-06
0.000975441990819096,0.00149106988257586,3.80769721065794e-06,-1.59726220341141e-05
0.000967681465606777,0.00147991189240884,-4.05811690125053e-06,-2.71400963348408e-05
0.000956392345213434,0.00146682271163599,-1.46805677060187e-05,-4.09096308334516e-05
0.000943374690018576,0.0014488221078409,-2.72967450668995e-05,-5.76610075506985e-05
0.000931680258016602,0.00143597134566136,-3.98620361482533e-05,-7.16967932642884e-05
0.000921571309660155,0.00143147715517742,-4.97367583205238e-05,-7.67372778377997e-05
0.000915420109952695,0.00143392094575888,-5.48184229722843e-05,-7.29893371288067e-05
0.000916159207591963,0.00144057282451229,-5.49494896835763e-05,-6.59951004069794e-05
0.000918960626063384,0.00144864329389592,-5.20734067694225e-05,-5.99751212768077e-05
0.000922572667752067,0.00145277985648989,-4.81838740127256e-05,-5.48034335921206e-05
0.000927138383814,0.00145788201438677,-4.31615397923519e-05,-4.80866503200281e-05
0.000935268457845953,0.0014697671812634,-3.54637015533171e-05,-3.74574988062825e-05
0.00094633108057565,0.00148661145488092,-2.49107214000733e-05,-2.17270602680243e-05
0.000956285056846443,0.00150365838430276,-1.36550602624614e-05,-2.3725991262147e-06
0.000966322479624896,0.00152231463922945,-4.04002094279986e-06,1.65356016536376e-05
0.000974714814109493,0.00153892049425366,3.34169339180788e-06,3.17399716492282e-05
0.00097877985112547,0.00155006656349102,8.82364070329695e-06,4.32455569417839e-05
0.000982713757915125,0.00155674228410377,1.2260843711999e-05,5.17351453289026e-05
0.000984644948520955,0.00156071195368242,1.38474197044608e-05,5.54643034526619e-05
0.000985825120557852,0.00155911454910723,1.5374274213199e-05,5.27375268911312e-05
0.000989174901793891,0.00155119905180925,1.86493144932143e-05,4.61531612817341e-05
0.000993382989965855,0.00154484519629748,2.2745256873607e-05,4.07474043016072e-05
0.000995266496853023,0.00154281863825432,2.48226180723536e-05,3.82895696834555e-05
0.00099500423640038,0.00154151925692077,2.42445923806977e-05,3.67943973970504e-05
0.000995063841048708,0.00153919467563597,2.39819271321128e-05,3.53820190359293e-05
0.000996804296779889,0.00153876552216801,2.66978490185443e-05,3.57049149497774e-05
0.00100193029653611,0.00154129275925712,3.09291988247426e-05,3.80129961217166e-05
0.00100442177083622,0.00154329547544095,3.293136192894e-05,3.96632918981425e-05
0.00100204950583276,0.00154103049880448,3.15037301561278e-05,3.89019804476192e-05
0.000999760687336962,0.00153956422445561,2.90253782908888e-05,3.69339566369405e-05
0.000999701082688634,0.00153694161992917,2.78242359736142e-05,3.48834560543439e-05
0.000998473226933076,0.00153361568055246,2.73414752967716e-05,3.17337656481498e-05
0.000996601640975573,0.00152891883426421,2.526570533993e-05,2.65221980193158e-05
0.000991237222626044,0.00152050265792028,1.9902805954418e-05,1.91833435929383e-05
0.000982737599774456,0.00150835523059101,1.08022576828587e-05,7.79684201878848e-06
0.000970971642194488,0.00149199971508978,-1.38447309884583e-06,-1.06448614955923e-05
0.000956833419611062,0.00146796712088389,-1.44176691079716e-05,-3.36849318951952e-05
0.000946998652636924,0.00144804724741264,-2.49371440464643e-05,-5.160564287668e-05
0.000942385252856329,0.00144524582894122,-3.10509725427866e-05,-5.67788199176693e-05
0.000938046034458043,0.00145013341010412,-3.41955318931441e-05,-5.25527295735082e-05
0.000934338625332035,0.00145168313096065,-3.71774887125314e-05,-4.84852752902411e-05
0.000933539923044438,0.00145261296347457,-4.05500557215665e-05,-4.86499540052058e-05
0.000931155737111314,0.00145372160993347,-4.21902728600931e-05,-4.94766062390792e-05
0.000932014044047239,0.00145418652619043,-4.04023354278819e-05,-4.77049825323479e-05
0.000937664564708743,0.0014571786795365,-3.58908860514035e-05,-4.43660724983142e-05
0.000944292601602829,0.00146321066994731,-3.01421316561081e-05,-4.0123804440738e-05
0.000950622615255273,0.00147145995327592,-2.33368850530596e-05,-3.23063170683199e-05
0.000958252010241271,0.00148358353874585,-1.50708183788302e-05,-1.92755217865312e-05
0.000968790112065679,0.00150026091934806,-6.19065157012228e-06,-4.10816642670287e-06
0.000976729451222983,0.0015138030954482,1.66512339568873e-06,8.78173643701095e-06
0.000982570706759137,0.0015233398391807,8.16309400391583e-06,1.82144621037845e-05
0.000989484845965197,0.00153104075974469,1.4474047403305e-05,2.52271424614149e-05
0.000996756613061226,0.00153664359668753,2.1071561866812e-05,2.96860126576115e-05
0.0010023832918634,0.00153760919199045,2.65457350839133e-05,3.0306164202461e-05
0.00100479131965585,0.0015346766432927,2.93609678770312e-05,2.68078758953162e-05
0.00100613838470807,0.00152961024818481,3.00094070983389e-05,2.04252692925713e-05
0.00100705629629232,0.00152328023453237,3.04326233446932e-05,1.33218775789221e-05
0.0010081053381029,0.00151846417894746,3.1538940023922e-05,8.21326513108184e-06
0.00100860601714885,0.00151791581618284,3.21566299394426e-05,6.58538966168484e-06
0.00100778347300193,0.00151927480216472,3.055588004299e-05,6.17132614117319e-06
0.00100377804063428,0.00151522168607841,2.63262961661182e-05,2.34956365229097e-06
0.000997471868841163,0.00150733003063977,2.03873694622406e-05,-6.57732857075732e-06
0.000991368352852365,0.0014978171287666,1.36189221191205e-05,-1.76608266427113e-05
0.000984227715982658,0.00148848304083842,6.15881949445432e-06,-2.8052584358248e-05
0.000975775776849733,0.00147755154833505,-1.89073075779168e-06,-3.83980975628685e-05
0.000968623219050361,0.00146917113478012,-9.72911780312785e-06,-4.93307594096453e-05
0.000961923656578282,0.00146101721888883,-1.65467706641433e-05,-5.81091045618977e-05
0.000955331382473193,0.0014560342702886,-2.29083710029331e-05,-6.26941117241388e-05
0.000948143061884824,0.00145463952151772,-3.05676323938089e-05,-6.65673226804296e-05
0.00093865400187099,0.0014473677544217,-4.01263686328739e-05,-7.42415422839705e-05
0.000929749067410771,0.00143816479671984,-4.91672771671696e-05,-8.27271393392907e-05
0.000924921090896195,0.00144118079192524,-5.36877363592759e-05,-8.27434330547973e-05
0.000927496011703969,0.00145446070757274,-5.17356988497225e-05,-6.93539646506581e-05
0.000934088285809057,0.00147591838097086,-4.50624999060558e-05,-4.72127759000244e-05
0.000941741522654386,0.00150095233326866,-3.6920976702746e-05,-2.40816687076147e-05
0.000950563010606945,0.00152332791825103,-2.89723617536592e-05,-3.24045150281045e-06
0.000957775173054646,0.00154064902905518,-2.09413563263666e-05,1.57913366873898e-05
0.000966858921459849,0.00155885228865458,-1.24829792761538e-05,3.3086010111246e-05
0.000974869786195146,0.00157610187388074,-4.00736889342569e-06,4.84407836558311e-05
0.000983405171835731,0.00159062156621346,4.37454293159785e-06,6.3490265124454e-05
0.000992059766772972,0.00160632143058309,1.33794696257847e-05,8.01639168222525e-05
0.00100250250116006,0.00162496576458012,2.32297038921243e-05,9.7579789677561e-05
0.00101070410077,0.00164096365219138,3.25039625070481e-05,0.000112569900198297
0.00101790434228804,0.00164949903783196,3.92149436018433e-05,0.000122512108363886
0.00102139717468006,0.00165245542838904,4.27972925238134e-05,0.000125942026099761
0.00102226740254565,0.00164953480062096,4.42718002943303e-05,0.000121692314297794
0.00102288729088827,0.00163756618723668,4.45670853431969e-05,0.000110001737592428
0.0010209680212121,0.00161985168575357,4.35591095938813e-05,9.41335151852009e-05
0.00101921564455126,0.00160501012831987,4.09873357076165e-05,7.8596228365626e-05
0.00101469761220799,0.00159182558010969,3.7477190333075e-05,6.53877011282267e-05
0.00101094251936331,0.00157858142725119,3.40356667929333e-05,5.33677921349629e-05
0.00100830799390721,0.00156586179529797,3.10528351472083e-05,4.12957980749871e-05
0.0010054350498578,0.00155422696794432,2.84884290203666e-05,2.99047606541334e-05
0.00100249058023039,0.0015442133870252,2.65539682068919e-05,2.04457345103845e-05
0.0010012746454045,0.00153472432701137,2.51029700076256e-05,1.21419413016781e-05
0.000998997747838363,0.00152388820194532,2.24550654016726e-05,1.89077467503898e-06
0.000991475641219356,0.00150830754687235,1.63615365183132e-05,-1.308454295141e-05
0.000982093869572512,0.00148828038503411,7.04583923678546e-06,-3.16944680411332e-05
0.000973892269962565,0.00147119769282327,-1.78840009070678e-06,-4.83916176939062e-05
0.000968277512090058,0.00146083840494385,-6.50977100142113e-06,-5.78768125252589e-05
0.000965714512211949,0.00145580777262496,-7.94379982184927e-06,-6.12372318460007e-05
0.000964081344847759,0.00145066985193907,-1.08397023935094e-05,-6.56546233854439e-05
0.000955498275488512,0.00144000061988834,-1.86718890384447e-05,-7.64133299925817e-05
0.000942814406324292,0.00142327555556748,-3.0092503146243e-05,-9.05332381121939e-05
0.000932681616108514,0.00141288050489905,-4.09539032084695e-05,-0.000100123691500858
0.000925302560645494,0.00141282090025073,-4.85426410134352e-05,-0.000100738142664038
0.000919485146968671,0.00141663559774373,-5.27587613297001e-05,-9.41857963853196e-05
0.000918424184228431,0.00142576702986759,-5.41784598283992e-05,-8.44018638709646e-05
0.000920176560889277,0.00143616208053601,-5.28526191248249e-05,-7.38287730502283e-05
0.000923252160743008,0.00144474514989526,-4.91945825112176e-05,-6.36518582905906e-05
0.000926804597783363,0.00145329245646551,-4.44970170967941e-05,-5.39975967572177e-05
0.000932741220756842,0.00146420010710955,-3.95998468056198e-05,-4.26515666650699e-05
0.000938963946042296,0.00147997149705717,-3.3725779866147e-05,-2.62891798701604e-05
0.000945079382960759,0.00149956950542745,-2.55314991260793e-05,-4.7306948415821e-06
0.000956618842877081,0.00152231463922945,-1.50562370709361e-05,1.77388500761983e-05
0.000968492088824039,0.00154057750347719,-3.86813129579466e-06,3.66204720924969e-05
0.000977802334892889,0.00155370244703903,6.67794273398576e-06,5.11036031984344e-05
0.000987577497218698,0.00156430015351177,1.65626959580292e-05,6.24132858697144e-05
0.000997865259520129,0.00157263288334804,2.61558185107644e-05,7.0194742100069e-05
0.00100656753817603,0.0015742422088529,3.46947491338135e-05,7.28076846387642e-05
0.00101157432863559,0.00157060632530489,4.0394783633656e-05,7.03585843257079e-05
0.00101332670529644,0.00156615981853961,4.21475611797934e-05,6.53227734854883e-05
0.00101265913323516,0.00156073579554175,4.07121743015003e-05,6.01712800297014e-05
0.00101007229149772,0.00155584821437885,3.79797635242346e-05,5.56134434289645e-05
0.00100663906375403,0.00155043611231065,3.51627624643876e-05,5.088255380035e-05
0.00100339657088498,0.00154439220097018,3.18024517489052e-05,4.45345002191029e-05
0.000999105036205353,0.00153584489439993,2.64544675432072e-05,3.51520198915117e-05
0.000991118013329387,0.0015222311927218,1.83343082479958e-05,2.24080251181555e-05
0.000980186520826013,0.00150736579342877,8.52208612098653e-06,7.62726020817014e-06
0.000972497521191688,0.00149357327780564,-3.28621365974821e-07,-7.04664017357391e-06
0.000967907963270424,0.00148175963650701,-5.72108363935859e-06,-1.96223314206449e-05
0.00096611982382058,0.0014723659439305,-7.06384107777751e-06,-2.83334003520944e-05
0.000967109260982827,0.00146873006038249,-5.81103689962404e-06,-3.23860541236844e-05
0.00096985107480592,0.00146837243249252,-4.10021211211788e-06,-3.40319315056556e-05
0.000971043167772482,0.00146425971175788,-3.65615379199255e-06,-3.85357988198768e-05
0.000968349037668051,0.00145331629832484,-5.8006492954197e-06,-4.96292094563448e-05
0.000962770042584541,0.00143854626646914,-1.13106107133938e-05,-6.49049237459705e-05
0.000956308898705774,0.00142700680655282,-1.93365994050353e-05,-7.73999534271922e-05
0.000948357638618805,0.00142415770436273,-2.71002467966401e-05,-8.18374946415823e-05
0.000943446215596569,0.00142748364373944,-3.19107309417243e-05,-7.79729501742247e-05
0.000942564066801314,0.00143785485254853,-3.35212164387061e-05,-6.84273715863901e-05
0.000942444857504657,0.00145161160538266,-3.36471489237847e-05,-5.5926613826221e-05
0.000943970736501857,0.00146651276746468,-3.32731218107199e-05,-4.32947718370564e-05
0.000945389327132066,0.00147483357637129,-3.15182816483809e-05,-3.3322151626268e-05
0.000949239787414061,0.00148271331088026,-2.72887590207233e-05,-2.63805056258257e-05
0.000957441387024008,0.00149363288245397,-2.09021331666944e-05,-1.94004483361568e-05
0.00096457010296405,0.00150254973784386,-1.36485076641207e-05,-9.17363582272474e-06
0.000970816670108835,0.00151519784421908,-6.73509599702646e-06,3.88915659337675e-06
0.000977587758158908,0.001531279178338,-1.11827584670172e-06,1.66672694514018e-05
0.000981760083541875,0.00154262790337967,2.75725834458529e-06,2.71639244539615e-05
0.000985217153144905,0.00155048379602932,5.89603074765748e-06,3.56901618228705e-05
0.000989306032020213,0.00155853042355361,1.04961307782226e-05,4.26933572958973e-05
0.000997352659544507,0.00156568298135298,1.76548246667976e-05,4.74140084613582e-05
0.00100610262191907,0.00156711349291286,2.581952339338e-05,4.91264605328357e-05
0.00101186043094757,0.0015670658091942,3.23860219205532e-05,4.84341904693177e-05
0.00101681953768847,0.00156648168364058,3.62620044255389e-05,4.69030898058302e-05
0.00101810699809235,0.00156717309756119,3.79080242246019e-05,4.61841673389252e-05
0.00101820236552968,0.00156862745098039,3.75929223610942e-05,4.7483217515281e-05
0.0010160089144712,0.00157252559498105,3.52059183892476e-05,5.09862806795594e-05
0.00101238495185286,0.00157872447840717,3.17074603786933e-05,5.57958149483416e-05
0.00101003652870873,0.00158429155256102,2.90622251759827e-05,6.10198331686848e-05
0.00100888019853116,0.00158967981276988,2.79801949514477e-05,6.62258275089565e-05
0.00100800997066557,0.00159448394742512,2.68107381344505e-05,6.9795416427318e-05
0.00100474363593719,0.00159296998935759,2.36539151239816e-05,6.81733945687986e-05
0.00100004678964894,0.00158430347349068,1.89597999861896e-05,5.91253166815554e-05
0.000995862543336304,0.00157060632530489,1.49051458651659e-05,4.49828446681816e-05
0.00099366909227783,0.00155628928877647,1.21922772717808e-05,2.95756222281232e-05
0.000989389478527872,0.00153813371289573,8.50558895448717e-06,1.22425369203015e-05
0.000982034264924184,0.00151586541628035,8.67648646094018e-07,-1.08215885990766e-05
0.000969898758524582,0.00148963937101599,-1.0806912899492e-05,-3.79326711381698e-05
0.000957858619562305,0.0014674783627676,-2.32373059156535e-05,-5.92951537040707e-05
0.000948298033970477,0.00146076687936585,-3.28366802102495e-05,-6.66939292483495e-05
0.000941777285443382,0.00146473654894451,-3.84632707217301e-05,-6.28899656427205e-05
0.000939464625088252,0.00147013673008303,-4.09427222514425e-05,-5.73992643911945e-05
0.00093990569948588,0.0014723659439305,-4.10922561338184e-05,-5.5229946834704e-05
0.000940883215718461,0.00147365340433439,-3.94181808383693e-05,-5.44182196748282e-05
0.000942564066801314,0.00147426137174734,-3.70303580985105e-05,-5.29881043761555e-05
0.000944900569015775,0.00147528657169858,-3.5055432635292e-05,-5.22232031106209e-05
0.000947523173542212,0.00147610911584551,-3.29577633310413e-05,-5.2187733872838e-05
0.000950372275732295,0.0014776707576317,-2.89761491927756e-05,-4.93306656055785e-05
0.000955951270815806,0.00148582467352299,-2.27005639128234e-05,-4.10337402078953e-05
0.000964212475074081,0.00149873504035086,-1.57743224198136e-05,-2.90749057765502e-05
0.000969541130634614,0.00151070365373514,-9.36482785731219e-06,-1.6421732184306e-05
0.000976085721021039,0.00152248153224477,-2.4742546760914e-06,-3.61057611314287e-06
0.000984716474098949,0.00153604755020425,6.04708040249637e-06,9.49142997599251e-06
0.000993061124864884,0.00154817113567419,1.50553751894844e-05,2.10842725104142e-05
0.00100076204542887,0.00155453691211563,2.21906962960111e-05,2.91567557152401e-05
0.00100476747779652,0.00155941257234887,2.66165118338179e-05,3.39131067089302e-05
0.00100598341262242,0.00156246433034327,2.92220679175851e-05,3.65161736012206e-05
0.0010084868078522,0.0015624524094136,3.06880372036898e-05,3.73920253582312e-05
0.00100874906830484,0.00156197557222698,3.09124811961176e-05,3.75636325984219e-05
0.00100679403583968,0.00156379947446582,3.00951714965124e-05,3.92669063842214e-05
0.00100504165917883,0.00156735191150617,2.88716287481319e-05,4.28513035849679e-05
0.00100436216618789,0.00156826982309042,2.72647288879753e-05,4.50459061542456e-05
0.00100150114306814,0.00156614789760994,2.46853022063206e-05,4.26736875899759e-05
0.000996816217709554,0.00155929336305221,2.11155769147542e-05,3.629408140421e-05
0.000993001520216555,0.00155099639600494,1.73484312695585e-05,2.80984523444761e-05
0.000990200101745135,0.00154029140116521,1.40035974266563e-05,1.85847822771779e-05
0.000986898004227758,0.0015294433551695,1.11146785232857e-05,7.92164141054463e-06
0.000983917771811352,0.00152052649977961,8.51959744763193e-06,-2.10326912288255e-06
0.000980210362685344,0.0015088439887073,5.68680933530174e-06,-1.11317593507461e-05
0.000976669846574655,0.00149706611019767,1.30945759292416e-06,-2.28935652761355e-05
0.000970172939906892,0.00148147353419504,-5.76616632200189e-06,-4.02410758009608e-05
0.000958538112553245,0.0014601946747419,-1.50301371108136e-05,-5.8783627348224e-05
0.000949871596686339,0.00144810685206096,-2.45752587848713e-05,-7.02399479939353e-05
0.00094230180634867,0.00144830950786528,-3.28960680963784e-05,-7.18957559408391e-05
0.00093481546251866,0.00144929894502753,-3.95858360638148e-05,-6.84235144220183e-05
0.000929248388364815,0.00145356663784782,-4.43713167630103e-05,-6.43683724486605e-05
0.000927209909391994,0.00145820387948775,-4.66021266836299e-05,-5.9319548238185e-05
0.000928628500022203,0.00146578559075508,-4.59722823772875e-05,-5.10919060531e-05
0.000931131895251983,0.0014776707576317,-4.28786123261644e-05,-3.92866482264714e-05
0.000935232695056957,0.00149116525001319,-3.77635514734969e-05,-2.44535000260025e-05
0.000942719038886967,0.00150834330966135,-3.072422747826e-05,-7.52995592263799e-06
0.000952684936087426,0.001523649783352,-2.19008964907282e-05,8.69241248650389e-06
0.000961172638009348,0.00153601178741525,-1.17245461316098e-05,2.12561189693882e-05
0.000972247181668709,0.00154564389858507,-8.44847102231276e-07,3.1327404965468e-05
0.000983047543945762,0.00155633697249514,9.71091954012051e-06,4.28344600886146e-05
0.000992393552803609,0.00156844863703541,1.87275969497548e-05,5.55076460415266e-05
0.000999116957135019,0.00157697210174633,2.58998800746229e-05,6.37844407547037e-05
0.00100448137548455,0.00157712707383198,3.21793184875819e-05,6.47964380961488e-05
0.00101156240770593,0.00157383689724427,3.79687326816159e-05,6.27733584767447e-05
0.00101492410987163,0.00157368192515862,4.16005026149365e-05,6.22390286353259e-05
0.00101374393783474,0.00157253751591072,4.11524705432203e-05,6.11286427952058e-05
0.00101022726358338,0.00156483659534672,3.74512862680874e-05,5.49888609163918e-05
0.00100674635212102,0.00155386934005435,3.34980153797207e-05,4.46241858024899e-05
0.00100384956621227,0.00154474982886015,3.08778454190477e-05,3.46123166445883e-05
0.00100110775238918,0.00153533229442431,2.85070601405944e-05,2.64198378954049e-05
0.000998151361832104,0.00152574786697315,2.50843525682859e-05,1.78941641210144e-05
0.000993526041121843,0.0015164376209043,2.07689679975312e-05,8.27795617687773e-06
0.000988829194833588,0.0015070081655388,1.59003223550714e-05,-7.98370490358999e-07
0.000983285962539074,0.00149875888221019,1.01490755921134e-05,-8.47192909217847e-06
0.000976359902403349,0.00149145135232516,3.90666675083256e-06,-1.4837337037277e-05
0.000971603451466766,0.00148732671066086,-1.48335208338051e-06,-1.91869211429308e-05
0.00096707349819383,0.00148434647824445,-6.17345549655738e-06,-2.22270904221598e-05
0.000960052070620779,0.00147653826931347,-1.25211694790988e-05,-2.84615321211293e-05
0.000951659736136182,0.00146453389314019,-2.15693235878308e-05,-4.09637369933164e-05
0.000942432936574992,0.00145130166121135,-3.05394470854736e-05,-5.44607892300415e-05
0.00093712812287379,0.00144417294527131,-3.60486694887001e-05,-5.96402642836031e-05
0.000934708174151669,0.00145043143334576,-3.84282774735802e-05,-5.48499852116428e-05
0.000933075006787479,0.00145714291674751,-4.01804365148223e-05,-4.75314912537104e-05
0.000932109411484564,0.00146052846077254,-4.11180351776578e-05,-4.28625733892251e-05
0.000934898909026319,0.00146715649766663,-3.83632671987989e-05,-3.75427611047037e-05
0.000942575987730979,0.00147687205534411,-3.12986587844111e-05,-2.75436975289034e-05
0.00094989543854567,0.00148775586412882,-2.3159496558202e-05,-1.5414800361089e-05
0.000957250652149358,0.00149928340311548,-1.64298931197408e-05,-5.11087667253436e-06
0.000964593944823381,0.00150949963983891,-9.46633555085346e-06,5.15122417938159e-06
0.000973713456017581,0.00152245769038544,2.16325068216526e-07,1.88953310682721e-05
0.000985217153144905,0.00153807410824741,1.13272489610354e-05,3.38588806653437e-05
0.000994396268987433,0.00154961356816373,2.00430305592953e-05,4.46783520688842e-05
0.000998628199018728,0.00155465612141228,2.47880061405226e-05,5.0683994335956e-05
0.00100140577563082,0.00155935296770054,2.71797710101081e-05,5.46660630412646e-05
0.0010034919383223,0.0015609622932054,2.86162195597445e-05,5.53924484064644e-05
0.00100260978952705,0.00155363092146104,2.85919296177652e-05,4.83158549624756e-05
0.00100152498492747,0.00153908738726898,2.6841391180129e-05,3.40351947140391e-05
0.000999796450125959,0.00152633199252677,2.47218845309728e-05,1.96534788825943e-05
0.000998246729269429,0.00151699790459859,2.32459098295139e-05,1.01645743475617e-05
0.000996089040999951,0.00151035794677484,2.15091903900956e-05,3.86153758968895e-06
0.000993895589941477,0.00150556573304926,1.85016662526576e-05,-2.02654850899205e-06
0.000990808069158081,0.00150140532859596,1.503069993334e-05,-6.74557066897439e-06
0.000987339078625386,0.00149921187753748,1.21073579183769e-05,-1.00009228674999e-05
0.000983750878796034,0.00149322757084534,8.54969800780294e-06,-1.5513265723324e-05
0.000978684483688145,0.00148305901784057,2.41181433703301e-06,-2.62430523405628e-05
0.000970757065460507,0.00147266396717214,-5.54677345013143e-06,-3.90597932117024e-05
0.000963246879771166,0.00146337756296262,-1.19899629565005e-05,-4.79544805148694e-05
0.000961554107758648,0.00146001586079692,-1.48578334032122e-05,-5.03875562917092e-05
0.000961661396125638,0.00146604785120772,-1.52928577107977e-05,-4.76369596075016e-05
0.000960576591526067,0.00147212752533719,-1.54524271854853e-05,-4.18654490177162e-05
0.000959932861324123,0.00147668132046946,-1.64196948682444e-05,-3.64907219589581e-05
0.000958275852100602,0.001478052227381,-1.8972336018468e-05,-3.64767543592241e-05
0.000952589568650101,0.00147343882760041,-2.4173904553682e-05,-4.32760170329513e-05
0.000945198592257416,0.00146489152103016,-3.14899635891358e-05,-5.08985772181498e-05
0.000939559992525577,0.00146535643728712,-3.77573811753605e-05,-5.16137351471735e-05
0.000937342699607772,0.00147298583227312,-3.98822114897513e-05,-4.47069937256068e-05
0.000939297732072933,0.0014834643294492,-3.77948978316821e-05,-3.54423495688289e-05
0.000944030341150185,0.00149239310576875,-3.34093765779977e-05,-2.67778326999911e-05
0.000949752387389683,0.0015020132960089,-2.78425131519142e-05,-1.75312267226435e-05
0.000955891666167478,0.00151263484434097,-2.13755566809039e-05,-8.12919961942385e-06
0.000962793884443872,0.00151981124399967,-1.48470616220205e-05,-1.46199771639587e-06
0.000969147739955648,0.00152535447629419,-8.54851637588126e-06,3.70309140536837e-06
0.000977265893057936,0.0015365839920392,-4.64171093393143e-07,1.39823582950035e-05
0.000988733827396263,0.0015548587772166,1.1405483014021e-05,3.24479127001903e-05
0.00100294357555768,0.00157670984129368,2.48646674218486e-05,5.2878429843785e-05
0.00101225382162653,0.00159076461736945,3.46830793502541e-05,6.68490577820061e-05
0.00101652151444683,0.00159704694730323,3.88317016432924e-05,7.31400182608074e-05
0.00101861959806797,0.00160090932851489,4.08588139154119e-05,7.60472189530403e-05
0.00102217203510833,0.0016023279191451,4.46451943215331e-05,7.73107292825064e-05
0.00102700001162291,0.00159994373321198,4.92266175465795e-05,7.47095162876747e-05
0.00102847820690144,0.00159280309634227,5.07553699758858e-05,6.7383914566016e-05
0.00102483040242376,0.00158365974328874,4.75848217867899e-05,5.78355176304787e-05
0.00101844078412299,0.00157409915769691,4.10675006432319e-05,4.85087228550655e-05
0.00101088291471499,0.00156593332087596,3.28405124645279e-05,3.99181106715776e-05
0.00100076204542887,0.00155862579099094,2.40415771961726e-05,3.25009320489362e-05
0.000993621408559168,0.00155289182382177,1.64179765163124e-05,2.73198085690885e-05
0.000988757669255594,0.0015499354332647,1.13892413853797e-05,2.41541131039547e-05
0.000984966813621927,0.00154693135898896,7.8983367274307e-06,2.09051483621903e-05
0.000979948102232701,0.00154093513136715,3.40524329896347e-06,1.5436167214587e-05
0.000974166451344875,0.00153208980155526,-2.70395668335613e-06,6.93642249160703e-06
0.000968122540004405,0.00152084836488058,-8.5279616945469e-06,-3.84729372603875e-06
0.000963962135551103,0.00151106128162511,-1.25876988413529e-05,-1.42913470171369e-05
0.000960826931049045,0.00150346764942811,-1.54069795376116e-05,-2.12586692202146e-05
0.000958001670718293,0.00149736413343931,-1.78858572350154e-05,-2.51937817106585e-05
0.000956189689409118,0.00149290570574437,-2.01871167774187e-05,-3.13703457155944e-05
0.000953042563977394,0.00148050793889212,-2.29070992139304e-05,-4.35698784175414e-05
0.000947821196783852,0.00146403321409423,-2.7293844845354e-05,-5.72687723772447e-05
0.000942707117957301,0.00145844229808106,-3.31447993722212e-05,-6.32132870933611e-05
0.000937295015889109,0.00146459349778852,-3.81536799124299e-05,-5.81645703218692e-05
0.000934398229980363,0.00147235402300084,-4.05927931371534e-05,-4.829565868692e-05
0.000933802183497082,0.00147794493901401,-4.11747313011025e-05,-4.11539204832788e-05
0.000933742578848754,0.00148208150160798,-4.10098119043791e-05,-3.82135183024978e-05
0.000935554560157928,0.00148274907366926,-3.93389737540705e-05,-3.6755645381297e-05
0.000939440783228921,0.00148274907366926,-3.49918549315811e-05,-3.4717628385136e-05
0.000945341643413403,0.0014868617944039,-2.86630377474554e-05,-3.06101123840058e-05
0.000952708777946757,0.0014955640730598,-2.16656788053192e-05,-2.19829371849819e-05
0.000960576591526067,0.00150765189574074,-1.36065167572799e-05,-8.02940178967681e-06
0.00096976762829826,0.00152335176011036,-3.8138905791606e-06,7.77200705982121e-06
0.000979232846452763,0.00153576144789228,5.69908455879455e-06,2.08741966806374e-05
0.000985658227542533,0.00154427299167353,1.17638621602173e-05,3.04816064758954e-05
0.000988078176264654,0.00155191430758919,1.47166639892179e-05,3.84356720294056e-05
0.000991439878430359,0.0015575648282507,1.84761897248445e-05,4.46060602671501e-05
0.000998234808339763,0.00155841121425695,2.49144374113947e-05,4.67589009966105e-05
0.00100401645922759,0.00155569324229319,3.08856221823458e-05,4.45760116130007e-05
0.00100551849636546,0.00155178317736287,3.26900396698031e-05,4.0575072011642e-05
0.00100395685457926,0.00154666909853632,3.13396477243528e-05,3.66949266750494e-05
0.00100384956621227,0.00154124507553846,3.09398158817343e-05,3.2490500202885e-05
0.00100576883588844,0.00153652438739087,3.30657581593704e-05,2.70629169519485e-05
0.00100762850091627,0.00152863273195223,3.52932704319364e-05,2.05257904330862e-05
0.00100729471488564,0.00152062186721694,3.49355480138295e-05,1.32083665957038e-05
0.00100491052895251,0.00151286134200462,3.19586580184241e-05,5.51729812621916e-06
0.000999724924547966,0.00150542268189327,2.79679094867083e-05,-1.10531415438195e-06
0.000996744692131561,0.00150076159839401,2.41463818782794e-05,-5.2604586747521e-06
0.00099309688765388,0.00149790057527426,2.07732702143017e-05,-8.06395246449926e-06
0.000989592134332188,0.00149242886855774,1.7463585083445e-05,-1.24251700323668e-05
0.000985574781034874,0.00148553857121101,1.32423304866948e-05,-1.94606991608617e-05
0.000979471265046076,0.00147647866466514,7.22787559860977e-06,-2.7909071771176e-05
0.000971770344482085,0.00146657237211301,-3.23009998128784e-07,-3.73736963346067e-05
0.000964272079722409,0.00145515212149335,-8.23897688711768e-06,-4.88463396759409e-05
0.000956463870791427,0.00144277819650043,-1.57900485161257e-05,-6.05278608626344e-05
0.000948715266508774,0.00143580445264604,-2.31685534229084e-05,-6.66079690208229e-05
0.000942277964489339,0.00144070395473861,-3.07194132462054e-05,-6.34914117137638e-05
0.000933611448622432,0.00144670018236042,-3.84846077975061e-05,-5.53263097684694e-05
0.000926125104792422,0.0014518738658353,-4.62576782224675e-05,-4.97860649158547e-05
0.000919616277194993,0.00145409115875311,-5.29581934564364e-05,-4.8993147708722e-05
0.000916814858723572,0.00145487794011104,-5.61045210558604e-05,-4.7696930689345e-05
0.000919008309782047,0.00146069535378786,-5.34049958732728e-05,-4.0194517638641e-05
0.000927376802407312,0.00147567996237755,-4.52641110974412e-05,-2.59292132282753e-05
0.000938904341393968,0.00149515876145117,-3.45356433154632e-05,-7.8548278520991e-06
0.000949037131609746,0.00151275405363763,-2.3527652668734e-05,1.14655958548291e-05
0.000960719642682054,0.00153083810394037,-1.25767278311288e-05,3.03548646844976e-05
0.000971448479381113,0.00154922017748476,-1.83101267522771e-06,4.67871632654776e-05
0.000980866013816953,0.00156111726529105,7.44890020657684e-06,5.90330475764822e-05
0.000987994729756995,0.00156791219520045,1.44721786013313e-05,6.70860762899206e-05
0.000994002878308468,0.00157328853447965,2.02891359551178e-05,7.21117610392405e-05
0.0010000944733676,0.00157727012498797,2.61136580700167e-05,7.46429475521299e-05
0.00100510126382716,0.00157527932973381,3.12759158437025e-05,7.39618588866326e-05
0.00100870138458618,0.00157061824623455,3.4237765265136e-05,6.89588335026737e-05
0.00100919014270247,0.00156120071179871,3.47868051073093e-05,5.93516868029236e-05
0.00100812917996223,0.00154863605193115,3.37638102675737e-05,4.67285908248606e-05
0.00100646024980904,0.00153735885246747,3.13604130862057e-05,3.46242406053837e-05
0.00100244289651173,0.00152852544358524,2.73586048999569e-05,2.65438412719563e-05
0.00099750763163016,0.00152481803445924,2.26465485957877e-05,2.31493562510159e-05
0.000994789659666399,0.0015255571320985,1.8782538054157e-05,2.18331255354154e-05
0.000991475641219356,0.00152224311365146,1.60732311593956e-05,1.93265126307282e-05
0.000989687501769513,0.00151641377904497,1.35491487221618e-05,1.41507868971573e-05
0.000987029134454079,0.00151025065840785,1.08725503147322e-05,6.68586992822019e-06
0.000985395967089889,0.00150232324018021,8.78478490732067e-06,-1.80311370551809e-06
0.000984263478771655,0.00149393090569561,7.40104881467835e-06,-9.91506691940547e-06
0.0009822369207285,0.00148633727349861,5.45756125859657e-06,-1.73935354887147e-05
0.000979530869694404,0.00147831448783365,1.82634943562951e-06,-2.61249102723555e-05
0.000974464474586515,0.00146762141392359,-3.19488779882189e-06,-3.80250872034502e-05
0.000969207344603976,0.00145434149827608,-8.55917923304893e-06,-5.10280584603952e-05
0.000964832363416693,0.0014450074103479,-1.36219543112104e-05,-5.93148924569837e-05
0.000960481224088742,0.00144745120092936,-1.82611385369204e-05,-5.93571981710464e-05
0.000956344661494771,0.00145350703319949,-2.25680839044857e-05,-5.41034482534015e-05
0.000952589568650101,0.00145634421445991,-2.66959149489157e-05,-4.90970982248622e-05
0.00094921594555473,0.00146148213514579,-3.04072274444632e-05,-4.59313363371973e-05
0.000947654303768534,0.00146679886977666,-3.26912906414978e-05,-4.2070520458992e-05
0.000947761592135524,0.00147253283694582,-3.24701206871876e-05,-3.58632881780484e-05
0.000951099452441898,0.00147970923660453,-2.95881078860661e-05,-2.83771587470116e-05
0.000956904945189055,0.00148916253382936,-2.43869916060966e-05,-2.04407740298288e-05
0.000964987335502346,0.00149996289610642,-1.67561460569944e-05,-1.11092886028298e-05
0.000974881707124812,0.00151029834212651,-6.9286306160825e-06,2.27121164987106e-07
0.000985240995004236,0.00152332791825103,3.0271447340297e-06,1.26341219453304e-05
0.000993239938809868,0.0015373826943268,1.0328613367345e-05,2.49773064868768e-05
0.000997996389746451,0.00154892215424312,1.45172579011459e-05,3.60488686542854e-05
0.00100091701751453,0.00155557403299654,1.77317924239459e-05,4.30731815846663e-05
0.00100516086847549,0.00155696878176741,2.12722602550759e-05,4.31016876042908e-05
0.00100846296599287,0.00155134210296524,2.35228929980435e-05,3.69130159735234e-05
0.00100694900792533,0.0015441776242362,2.23633776461058e-05,2.87667616225457e-05
0.00100337272902565,0.00153692969899951,1.82504150802451e-05,2.12007649777779e-05
0.000999164640853681,0.00152888307147521,1.35829764394202e-05,1.3117916535872e-05
0.000996625482834904,0.00152198085319882,1.00767421528955e-05,4.4455211574686e-06
0.000994300901550108,0.00151722440226223,8.09690942440964e-06,-1.08471203938725e-06
0.000994086324816127,0.00151680716972394,7.5747823128812e-06,-8.91596798634462e-07
0.000995850622406639,0.00152040729048296,7.90490193425368e-06,1.49809615780892e-06
0.00099481350152573,0.00152062186721694,7.46083333020596e-06,1.51694593930254e-07
0.00099279886441224,0.00151392230474486,4.91286544115915e-06,-6.14603562744367e-06
0.000989961683151822,0.00150741347714743,1.09506409074065e-06,-1.36169005415667e-05
0.000986778794931101,0.00150257357970319,-1.595481567984e-06,-1.87475413590005e-05
0.000987649022796692,0.00150177487741559,-1.74417107418683e-06,-2.05013752183354e-05
0.000989472925035532,0.00150482663540999,-1.70741371177877e-07,-1.89726837536214e-05
0.000990343152901122,0.00150601872837655,9.44149267556841e-07,-1.60599489546644e-05
0.0009898305529255,0.00150718697948378,-7.60887466230839e-07,-1.65921582285184e-05
0.000983369409046734,0.00150176295648592,-6.93709401397687e-06,-2.40477628416529e-05
0.000973475037424268,0.00148918637568869,-1.72414634987134e-05,-3.47648398038536e-05
0.000962328968186913,0.00148404845500281,-2.87040286613139e-05,-4.06959677422291e-05
0.00095400815928031,0.00148788699435514,-3.7453910227912e-05,-3.88487594340525e-05
0.000949871596686339,0.00149185666393379,-4.14705911177731e-05,-3.39926982423894e-05
0.00095046764316962,0.00149534949632582,-4.12175870181558e-05,-3.08307811094287e-05
0.000954341945310947,0.00149898537987383,-3.7993654713793e-05,-2.78727250724236e-05
0.000959110317177195,0.00150570878420524,-3.27657560328262e-05,-2.14577544938772e-05
0.000965547619196631,0.00151535281630473,-2.64922338800362e-05,-1.19338231068821e-05
0.000972878990940987,0.00152515182048987,-2.01863572547185e-05,-2.2359700018846e-06
0.000978291093009179,0.00153495082467501,-1.40001165092885e-05,7.23925000162086e-06
0.000985574781034874,0.00154625186599802,-6.90252599740429e-06,1.86738012063362e-05
0.00099511152476737,0.00156102189785373,2.20214613633327e-06,3.29101209295341e-05
0.00100622183121573,0.00157622108317739,1.31374571953079e-05,4.83427207768526e-05
0.00101683145861813,0.00159040698947948,2.41093517616827e-05,6.27831076115926e-05
0.00102497345357975,0.00160176763545082,3.25286813334588e-05,7.39816305824252e-05
0.00103036171378861,0.00160778770493196,3.68883249573805e-05,7.93617359906905e-05
0.00103151804396618,0.00160504589110886,3.85826813427571e-05,7.80566349121256e-05
0.00103334194620502,0.00160038480760961,4.11410981095217e-05,7.28980907287661e-05
0.00103961235520913,0.00159583101247734,4.64222995194556e-05,6.79935099519022e-05
0.00104477411775435,0.00159109840340009,5.2020048075239e-05,6.43333340876205e-05
0.00104628807582188,0.00158635387339317,5.38284668793552e-05,5.96448676361166e-05
0.00104327208061648,0.00157905826443781,5.08035949798478e-05,5.23146353779977e-05
0.00103763348088464,0.00156967649279097,4.54662146051795e-05,4.33635127114408e-05
0.00103247171833943,0.00156006822348048,3.98522170200337e-05,3.43313814507615e-05
0.00102508074194674,0.00155040034952166,3.32176486519906e-05,2.50156083096836e-05
0.00101584202145589,0.00153949269887761,2.44748193721361e-05,1.40259838958899e-05
0.00100718742651864,0.00152539023908319,1.48188432922302e-05,7.54115118756337e-07
0.000997555315348823,0.00151047715607149,6.41333972357702e-06,-1.3532135523555e-05
0.000990629255213097,0.0014974714218063,-3.02177360047205e-07,-2.63744828809139e-05
0.000984954892692261,0.00148752936646517,-6.54396011793973e-06,-3.64774641296349e-05
0.000977194367479942,0.00147657403210247,-1.32193975777755e-05,-4.56070084286781e-05
0.000970172939906892,0.00146546372565411,-2.02801964718219e-05,-5.67587626779152e-05
0.000963139591404175,0.00145308980066119,-2.74303755467e-05,-6.96301286344163e-05
0.000955355224332525,0.00144151457795588,-3.43345043784415e-05,-7.96689616864748e-05
0.000949037131609746,0.00143687733631595,-4.05018669792356e-05,-8.31088299950062e-05
0.000944089945798513,0.001440155591974,-4.57820823826322e-05,-8.11791996967494e-05
0.000938487108855671,0.00144274243371144,-5.04425154482114e-05,-7.7334666544967e-05
0.000934588964855013,0.00144609221494747,-5.40308719730499e-05,-7.22419644065197e-05
0.000933611448622432,0.00145504483312636,-5.4992257900468e-05,-6.44926382242692e-05
0.000936412867093853,0.00146381863736025,-5.24529306477126e-05,-5.48567007773152e-05
0.000939738806470561,0.00147144803234625,-4.75983320249442e-05,-4.59798427742648e-05
0.0009453774062024,0.00147922047848824,-4.20016500998414e-05,-3.80182379743813e-05
0.000953221377922379,0.00148979434310164,-3.52629768240309e-05,-2.8192132062164e-05
0.000960588512455732,0.00150054702166003,-2.59052564549907e-05,-1.52036271637544e-05
0.000972080288653391,0.00151495942562577,-1.42933470548464e-05,-9.07775422224771e-07
0.000984299241560652,0.0015298248249188,-2.89223370902489e-06,1.30109733872296e-05
0.000992929994638562,0.00154149541506144,6.59578004804307e-06,2.66300256594372e-05
0.00100032097103125,0.00155310640055575,1.47728275070425e-05,3.89104679457173e-05
0.00100846296599287,0.00156220206989062,2.26962200286407e-05,4.66494476394385e-05
0.00101549631449558,0.00156304845589688,2.98730682124509e-05,4.83421253589415e-05
0.00102044350030681,0.00155929336305221,3.49643271115159e-05,4.64398220584678e-05
0.00102195745837435,0.00155763635382869,3.74743537432535e-05,4.37209383816859e-05
0.00102231508626432,0.00155437001910031,3.77412958750769e-05,3.99250291304137e-05
0.00102097994214177,0.00154714593572294,3.5949583091022e-05,3.43377534869286e-05
0.00101649767258749,0.00154148349413177,3.22938662566036e-05,2.93085978112074e-05
0.00101130014725328,0.00154169807086575,2.78615151489573e-05,2.80533097943794e-05
0.00100820070554022,0.00154336700101894,2.42237417746274e-05,3.02676978973538e-05
0.00100600725448175,0.00154446372654818,2.18803493573237e-05,3.2695479667541e-05
0.00100291973369835,0.00154550084742909,1.98241606848998e-05,3.30623140383613e-05
0.000999641478040306,0.00154358157775292,1.69964348579959e-05,3.09961231737099e-05
0.000997102320021529,0.00153914699191731,1.36035377577484e-05,2.6335511619815e-05
0.000993788301574487,0.00153088578765904,1.04734105836529e-05,1.95900078400514e-05
0.000989317952949879,0.00152567634139516,7.54424546768549e-06,1.32519796173294e-05
0.00098637348332247,0.00152179011832417,3.80484292919413e-06,9.18118759480816e-06
0.000981700478893547,0.00151675948600528,-1.33976785769518e-06,4.71069100048212e-06
0.000974214135063537,0.00150687703531248,-7.56962877121996e-06,-5.15487083107467e-06
0.000966942367967508,0.00149158248255148,-1.47248830086036e-05,-2.07777476865606e-05
0.000959253368333183,0.00147644290187615,-2.31647035377773e-05,-3.60391725793383e-05
0.000949716624600686,0.00146787175344656,-3.20773565609165e-05,-4.47132388421151e-05
0.000942933615620948,0.00146608361399672,-3.84148293740428e-05,-4.63454948925035e-05
0.000942337569137667,0.00146781214879824,-3.92438715527046e-05,-4.46383529928898e-05
0.00094671255032495,0.00147064933005865,-3.50971869190108e-05,-4.25245972648294e-05
0.000951564368698857,0.00147244939043816,-2.94414492780769e-05,-4.06640670343361e-05
0.000956654605666077,0.00147418984616934,-2.4577567575453e-05,-3.86807552974266e-05
0.000961768684492629,0.00147768267856137,-1.95984186098702e-05,-3.54249018609856e-05
0.000968194065582398,0.00148490676193874,-1.28744298530363e-05,-2.90913996268735e-05
0.000976097641950705,0.00149459847775689,-4.81095561787104e-06,-1.91708595395261e-05
0.000983774720655365,0.00150580415164257,3.01380174420425e-06,-7.60318297687337e-06
0.000991427957500694,0.00151790389525318,1.00318789392146e-05,3.57921851974181e-06
0.000996995031654538,0.00152919301564652,1.64330192194314e-05,1.46467705688407e-05
0.00100212103141076,0.00154101857787481,2.16240641201261e-05,2.61992999241736e-05
0.00100580459867743,0.00154981622396804,2.46276703590678e-05,3.58522738323605e-05
0.00100628143586406,0.00155541906091088,2.56920375352716e-05,3.97253194129531e-05
0.00100681787769901,0.00155279645638445,2.60937861047804e-05,3.73367260299459e-05
0.00100681787769901,0.00154756316826124,2.64379320226388e-05,3.25736298040143e-05
0.00100717550558898,0.00154534587534343,2.62608392001075e-05,2.92419773473013e-05
0.00100584036146643,0.00154361734054192,2.51676414248048e-05,2.77376364829892e-05
0.00100396877550893,0.00154312858242563,2.33269812245098e-05,2.67500856315997e-05
0.00100131040819349,0.00154261598245001,2.09788587000189e-05,2.59624988381215e-05
0.000999164640853681,0.00154169807086575,1.83941638545175e-05,2.56298417234738e-05
0.000997161924669857,0.00154290208476198,1.60981096240181e-05,2.51491901188136e-05
0.000994694292229074,0.00154051789882886,1.41642444858797e-05,2.36848511194792e-05
0.000991559087727015,0.0015384913407857,1.15640709464671e-05,2.11726107441555e-05
0.000988912641341247,0.00153516540140899,7.3216809790734e-06,1.74461311730681e-05
0.000983059464875428,0.0015294075923805,2.15915681419939e-06,1.1533118301355e-05
0.000978219567431186,0.00152118215091122,-2.13257291866337e-06,3.17061133949864e-06
0.00097562080476408,0.00151185998391271,-4.99106088844986e-06,-6.27197508375264e-06
0.000973808823454906,0.00150210866344623,-7.85476227868971e-06,-1.60923402144308e-05
0.000968563614402033,0.00149086722677155,-1.27148200929003e-05,-2.8151244722645e-05
0.000959420261348501,0.00147442826476266,-2.06350297919115e-05,-4.39793161233978e-05
0.000950241145505973,0.00145788201438677,-3.12279221940927e-05,-6.05723139735356e-05
0.000939738806470561,0.00144764193580401,-4.23986395644582e-05,-7.18467958209013e-05
0.00092972522555144,0.00144445904758328,-5.08778748662354e-05,-7.47401101722562e-05
0.000927019174517344,0.00144647368469677,-5.4354399772089e-05,-7.17907619195395e-05
0.000928545053514543,0.00145248183324825,-5.31706794093199e-05,-6.7275801168189e-05
0.000932788904475504,0.00145678528885754,-4.90312343854629e-05,-6.29002600823947e-05
0.000939357336721261,0.00146080264215485,-4.2537491823498e-05,-5.785288434816e-05
0.000947868880502515,0.00146847972085951,-3.34155874544036e-05,-5.07019673305074e-05
0.000959444103207833,0.00148016223193182,-2.27100625793229e-05,-3.98241182907987e-05
0.000969982205032241,0.00149555215213014,-1.27127598561768e-05,-2.38317829049324e-05
0.000977325497706264,0.00151474484889179,-4.44526089689401e-06,-3.4230259920994e-06
0.000985300599652564,0.00153832444777038,3.00852161910095e-06,1.80680054508277e-05
0.000992703496974915,0.00155640849807313,1.02738386936132e-05,3.71013149041659e-05
0.000999701082688634,0.00157016525090726,1.66133952399124e-05,5.20265448867064e-05
0.00100444561269555,0.00158169278989391,2.17360505046426e-05,6.22584455383391e-05
0.00100914245898381,0.00158667573849414,2.68329762261252e-05,6.73155230785294e-05
0.00101597315168221,0.00158611545479986,3.26527453393355e-05,6.81512306528345e-05
0.00102159983048438,0.00158617505944819,3.79507967866351e-05,6.77141821451358e-05
0.00102419859315149,0.00158736715241475,4.1138803561591e-05,6.81496594282006e-05
0.00102541452797738,0.00158618698037785,4.24706071781084e-05,6.85194717742255e-05
0.00102739340230187,0.00158436307813901,4.33915625525318e-05,6.70508169253344e-05
0.00102866894177609,0.00158321866889111,4.4465765908712e-05,6.43517447113916e-05
0.00102843052318278,0.00157949933883544,4.50008632014855e-05,6.22198411224256e-05
0.00102771526740284,0.00157674560408268,4.41223942897067e-05,6.03070987878985e-05
0.00102612978375732,0.00157395610654092,4.12985655288494e-05,5.63896142339399e-05
0.00102084881191545,0.00156656513014824,3.63155814723078e-05,4.92767427858683e-05
0.00101323133785911,0.00155477533070894,2.95642463474342e-05,3.91501387766473e-05
0.00100687748234734,0.00154203185689639,2.19995233107489e-05,2.58156563507492e-05
0.000999105036205353,0.00152553329023917,1.42266429737294e-05,9.29428414136234e-06
0.000990998804032731,0.00150743731900676,5.91475170117018e-06,-8.50901766875409e-06
0.000980663358012638,0.00148864993385374,-3.6536133343423e-06,-2.57891728651128e-05
0.000970399437570538,0.00147117385096394,-1.4905175357621e-05,-4.39960043146249e-05
0.000958097038155618,0.00145021685661178,-2.77142650393259e-05,-6.52054053964061e-05
0.000943875369064532,0.0014279843227854,-4.08080403298332e-05,-8.59921668980368e-05
0.000934076364879391,0.00141550310942549,-5.14268454607059e-05,-9.81393723481459e-05
0.000928974206982506,0.00141707667214135,-5.69580213694787e-05,-9.72564706340784e-05
0.000928211267483906,0.00142644652285853,-5.73365404629205e-05,-8.74627102124698e-05
0.000930821951080677,0.00143681773166762,-5.4665321241246e-05,-7.5750490316986e-05
0.00093576913689191,0.00144790419625665,-5.0339594045075e-05,-6.5036953314427e-05
0.000942039545896026,0.00145862111202604,-4.4222777590641e-05,-5.50209388783098e-05
0.000948584136282452,0.00146570214424742,-3.69037619313121e-05,-4.62027763975993e-05
0.000955915508026809,0.00147268780903147,-3.03159011190763e-05,-3.90695493099429e-05
0.000961971340296944,0.00148199805510032,-2.48348415505115e-05,-3.13266943348441e-05
0.000967741070255105,0.00149117717094285,-1.80159996983284e-05,-1.98449615863481e-05
0.000977957306978542,0.00150703200739813,-8.20136571420023e-06,-4.47311916064038e-06
0.00098934179480921,0.00152494916468556,2.34456002808784e-06,1.28952582343435e-05
0.000996303617733932,0.00154291400569165,1.01298350246981e-05,3.13960296328181e-05
0.00100152498492747,0.00156023511649579,1.49242492174802e-05,4.98320700437256e-05
0.00100542312892813,0.00157527932973381,1.91882484262604e-05,6.38564643724221e-05
0.00101097828215231,0.00158112058526996,2.40864867829324e-05,6.92383707166356e-05
0.00101555591914391,0.00157777080403392,2.86728816553403e-05,6.78309690940316e-05
0.00101851230970098,0.00157657871106736,3.23780618447476e-05,6.5785124634033e-05
0.001022076667671,0.00157693633895733,3.55149880303905e-05,6.51202131016399e-05
0.00102458006290079,0.00157171497176379,3.74031352167321e-05,6.14141933230619e-05
0.00102338796993422,0.0015620709396643,3.66931958486938e-05,5.13527089078596e-05
0.0010198593747532,0.00154931554492209,3.3961289536236e-05,3.8358177026495e-05
0.00101863151899764,0.00153911122912831,3.15673248938798e-05,2.80125948043813e-05
0.00101726061208609,0.00153232822014858,3.02534465444494e-05,2.10223008410234e-05
0.00101403004014671,0.00152397164845298,2.80197963526378e-05,1.38571669208102e-05
0.00100986963569341,0.00151613959766266,2.3214442026641e-05,4.29219553330483e-06
0.00100321775693999,0.001504755109832,1.67910379405505e-05,-6.75852598411653e-06
0.000997233450247851,0.00149310836154868,1.04574634475205e-05,-1.76877562792991e-05
0.000990390836619785,0.00148404845500281,4.23445138069268e-06,-2.78246177056073e-05
0.000983047543945762,0.00147438058104399,-3.00538395056069e-06,-3.73735299991514e-05
0.000974536000164509,0.00146398553037557,-1.18259301563012e-05,-4.76493205318234e-05
0.000964653549471709,0.00145230301930326,-2.19298454332e-05,-6.01950163736856e-05
0.000953173694203716,0.00143861779204713,-3.23035347526432e-05,-7.35515112234573e-05
0.000945079382960759,0.00142935522969694,-4.08780060623695e-05,-8.21999062147237e-05
0.000940692480843811,0.00143258580163633,-4.54478399768308e-05,-8.14306824668376e-05
0.000939846094837552,0.00143994101524001,-4.58884255149125e-05,-7.26826297742978e-05
0.000941145476171105,0.00145045527520509,-4.41829827115159e-05,-6.16211910126491e-05
0.000944185313235838,0.00146231660022238,-4.13988674582734e-05,-5.1557475380964e-05
0.000949227866484396,0.00147304543692144,-3.6217001464307e-05,-4.1497264236574e-05
0.000957596359109661,0.00148255833879461,-2.76689237744756e-05,-3.02040690511333e-05
0.000967419205154133,0.00149469384519421,-1.76333274258121e-05,-1.86030673434158e-05
0.000975942669865052,0.00150851020267667,-8.72643210202449e-06,-7.21898819992117e-06
0.000984335004349649,0.00152010926724131,-9.28983296255581e-07,5.64008138761415e-06
0.00099192863654665,0.00153423556889508,7.50238177364034e-06,2.11300887126231e-05
0.00100115543610784,0.0015529871912591,1.64638539393167e-05,3.71486866173885e-05
0.00100767618463493,0.00156615981853961,2.36969953574943e-05,5.02627613737895e-05
0.00101246839836051,0.00157334813912798,2.80236388955772e-05,5.9211649399027e-05
0.00101547247263625,0.00158059606436468,3.06927249819793e-05,6.48677880811493e-05
0.00101557976100324,0.00158376703165573,3.2912183391936e-05,6.76154606609537e-05
0.00101825004924834,0.0015822530735882,3.3815556139171e-05,6.66134634300379e-05
0.00101603275633054,0.00157784232961192,3.19377016938218e-05,6.16880810025321e-05
0.00101076370541833,0.00157098779505418,2.76557688553463e-05,5.47392665886496e-05
0.00100610262191907,0.0015647412279094,2.31273725984124e-05,4.87429708834683e-05
0.00100418335224291,0.00156269082800691,2.02424043349134e-05,4.54966603587835e-05
0.00100256210580838,0.00156111726529105,1.92359899528871e-05,4.4333181099427e-05
0.00100137001284182,0.00155899533981057,1.89422339735234e-05,4.30953335625985e-05
0.00100091701751453,0.001557946298,1.78777701953712e-05,4.0454253398256e-05
0.00099865204087806,0.00155441770281897,1.52291833722747e-05,3.67656259945995e-05
0.000993871748082146,0.00154881486587613,1.12100168594786e-05,3.23720296245105e-05
0.000989008008778572,0.00154365310333092,6.76382055130707e-06,2.64687576532456e-05
0.000986146985658823,0.00153677472691385,3.16619796988363e-06,1.91823676832386e-05
0.000984621106661624,0.00153108844346335,1.64647822699256e-06,1.32854408581261e-05
0.000984799920606608,0.0015278817133833,2.33127096150905e-06,1.06565907142516e-05
0.000985074101988918,0.00152419814611662,2.98638738464827e-06,7.28521665265355e-06
0.000982976018367768,0.00151393422567452,-7.44953157179543e-08,-4.11568484544696e-06
0.000974607525742502,0.00149394282662528,-8.44611916959684e-06,-2.4783587241539e-05
0.000962507782131897,0.00146960028824808,-1.94800860272685e-05,-4.65827813254841e-05
0.000953650531390341,0.00145671376327954,-2.90059467818024e-05,-6.06770592189926e-05
0.000947547015401543,0.0014526725681229,-3.56945194892002e-05,-6.68093790951768e-05
0.000942087229614689,0.00144655713120443,-4.09903254914273e-05,-7.07801737386465e-05
0.000936961229858472,0.00144063242916062,-4.51221552803157e-05,-7.5371537954615e-05
0.000937616880990081,0.00144068011287928,-4.58361609058127e-05,-7.85162316084401e-05
0.000941765364513717,0.00143952378270172,-4.19616855186215e-05,-7.92260395130762e-05
0.000946986731707259,0.00143620976425468,-3.58249572827956e-05,-7.96044627458819e-05
0.000953090247696057,0.00143853434553947,-3.03332107555855e-05,-7.97182928544479e-05
0.000958478507904917,0.00144360074064736,-2.53704876206229e-05,-7.52402773182955e-05
0.000965046940150674,0.00145398387038612,-1.92085078348356e-05,-6.29519821711627e-05
0.000971472321240444,0.00147215136719652,-1.22319238922762e-05,-4.55585693993889e-05
0.000977373181424926,0.00148954400357866,-6.62690392288757e-06,-2.83037602692266e-05
0.000982523023040475,0.00150508889586263,-2.71064063268552e-06,-1.29731367750999e-05
0.00098656421819712,0.00151953706261737,1.82865981285902e-06,2.11938095528558e-06
0.000992941915568227,0.00153576144789228,8.52604650756906e-06,1.78674671616966e-05
0.00100190645467677,0.00155026921929534,1.60294481268534e-05,3.28234092536732e-05
0.00100784307765025,0.00156278619544424,2.21673873196059e-05,4.50043098766467e-05
0.00101215845418921,0.00157138118573315,2.6419886887601e-05,5.30124633980132e-05
0.00101540094705826,0.00157278785543369,2.94081600192118e-05,5.60899499507561e-05
0.00101827389110767,0.00157302627402701,3.14395875389087e-05,5.5120404297698e-05
0.00101968056080821,0.00157146463224081,3.27062726685494e-05,5.3127744311031e-05
0.00102032429101016,0.00157043943228957,3.36773510915337e-05,5.30791163288631e-05
0.00102161175141405,0.00157246599033272,3.4021679065795e-05,5.54939110308786e-05
0.00102044350030681,0.00157777080403392,3.22106517040003e-05,5.91448004287506e-05
0.0010152817377616,0.00158046493413835,2.76560486168445e-05,6.28300131978791e-05
0.00101072794262933,0.0015821815480102,2.24183004548664e-05,6.50614774439391e-05
0.00100817686368089,0.00158159742245659,1.91029404036848e-05,6.37075462333853e-05
0.0010065079335277,0.00157630452968505,1.74280648533166e-05,5.80443757813253e-05
0.00100331312437732,0.00156710157198319,1.4495921298575e-05,4.95795734564578e-05
0.000998342096706754,0.00155556211206687,8.37719888697888e-06,3.85602722018925e-05
0.000989902078503494,0.00154080400114083,-1.04191848822121e-07,2.19539229793406e-05
0.000980842171957622,0.00151674756507561,-9.15882515530997e-06,-1.23988201873557e-06
0.000972580967699347,0.00149223813368309,-1.78610327287324e-05,-2.43613145392042e-05
0.00096486812620569,0.00148043641331413,-2.56925740511455e-05,-3.81042214514896e-05
0.000959491786926495,0.00147782572971736,-3.18959675301013e-05,-4.14204371221982e-05
0.000954520759255931,0.00147377261363105,-3.63422990343722e-05,-4.2389485771732e-05
0.000951111373371564,0.00147135266490893,-3.99587823027916e-05,-4.70952671966418e-05
0.000948858317664761,0.0014663697163087,-4.31589990183329e-05,-5.27587515866338e-05
0.000947177466581909,0.00146384247921958,-4.45400132661581e-05,-5.40744596427007e-05
0.000949430522288711,0.0014663697163087,-4.22029689546714e-05,-5.10381057315253e-05
0.00095593934988614,0.0014720559997592,-3.59590465905492e-05,-4.64911342130095e-05
0.000965142307587999,0.00147982844590118,-2.73931443367862e-05,-4.01953292341206e-05
0.000973975716470225,0.0014864445618656,-1.82209162090556e-05,-3.06454650157376e-05
0.000982415734673484,0.00149786481248527,-9.49615975190952e-06,-2.02252801094777e-05
0.000990641176142762,0.00150723466320244,-1.96437478221392e-06,-1.31268886323903e-05
0.000996434747960254,0.00150914201194894,4.05891324652224e-06,-9.32129190428412e-06
0.00100198990118443,0.00151267060712997,9.23713746073674e-06,-5.573314879436e-06
0.00100641256609038,0.00151757010922254,1.46581222494066e-05,-1.77092999616609e-06
0.0010129571564768,0.00151880988590776,2.04725322897295e-05,-1.08967370874372e-06
0.0010187149655053,0.00151566276047604,2.57611838155876e-05,-3.57727856757616e-06
0.00102179056535903,0.00151441106286115,2.99221195680187e-05,-4.57965899316237e-06
0.00102522379310273,0.00151895293706375,3.3541634273496e-05,-9.00982955712083e-07
0.00103018289984363,0.00152617702044112,3.76528530282346e-05,5.69742625395366e-06
0.0010350466391472,0.00153268584803854,4.26100304735941e-05,1.27800838569432e-05
0.00103873020641388,0.00154050597789919,4.77786521862064e-05,2.09768082844921e-05
0.00104322439689782,0.0015518070192222,5.17289765787277e-05,3.09675489610254e-05
0.00104495293169933,0.00156102189785373,5.25581665547845e-05,3.98893987102656e-05
0.00103956467149047,0.0015639782884108,4.87381028205154e-05,4.36704403024559e-05
0.00103089815562356,0.00156186828385998,4.02814383038582e-05,4.12282014480382e-05
0.00102015739799484,0.00155645618179179,2.90134568323913e-05,3.45184162324848e-05
0.00100837951948521,0.00154731282873826,1.74991659626926e-05,2.62979098486202e-05
0.000997924864168457,0.00154118547089013,7.63353034918164e-06,1.92244464604934e-05
0.000989377557598207,0.00153611907578224,-1.86513175314417e-07,1.45656790812727e-05
0.000982856809071112,0.00153145799228299,-7.21392437417792e-06,9.77498072752771e-06
0.000974869786195146,0.0015233040763917,-1.55637983348055e-05,-3.88546107360819e-08
0.000961971340296944,0.00150665053764883,-2.6292989371762e-05,-1.55382841593211e-05
0.000951290187316548,0.0014913679058175,-3.78201094914838e-05,-3.01534657113078e-05
0.000942444857504657,0.00148780354784748,-4.68560624695488e-05,-3.65673263185755e-05
0.00093721156938145,0.00148849496176809,-5.13094519302792e-05,-3.46134055451196e-05
0.000935733374102913,0.00149242886855774,-5.18292304618535e-05,-2.99859097661803e-05
0.000937688406568075,0.00149703034740867,-5.03399050609223e-05,-2.69025068175514e-05
0.000940418299461502,0.00149886617057718,-4.78830923770613e-05,-2.54271111409382e-05
0.000942647513308973,0.0014989615380145,-4.43215113637453e-05,-2.45716148160421e-05
0.000947368201456559,0.0015001774728404,-3.91774766252075e-05,-2.37327461871483e-05
0.000955689010363162,0.0015035391750061,-3.18555914780272e-05,-2.1097293222901e-05
0.000964689312260706,0.00150969037471356,-2.18445931318715e-05,-1.46224680153235e-05
0.000975763855920068,0.00151923903937572,-1.00152219409797e-05,-5.61650232548653e-06
0.000987184106539732,0.00152603396928513,6.59253067202948e-07,1.65711273555518e-06
0.000992643892326587,0.00152980098305946,7.23643323605036e-06,5.00488850583943e-06
0.000996124803788948,0.00153197059225861,1.00140776868229e-05,6.43564301643475e-06
0.000997495710700494,0.00153298387128019,1.24400000675359e-05,8.36875844956605e-06
0.00100209718955142,0.00153528461070565,1.72171050140466e-05,1.02880629747872e-05
0.00100882059388283,0.00153605947113392,2.33655653557417e-05,1.06144426492946e-05
0.00101251608207918,0.00153512963862,2.78473483097415e-05,9.88132739441277e-06
0.00101374393783474,0.00153536805721331,2.93064837707025e-05,1.03213357020004e-05
0.00101335054715577,0.00153841981520771,2.90574963815788e-05,1.3296506556166e-05
0.00101336246808544,0.00154353389403426,2.860940591956e-05,1.80767168202667e-05
0.00101141935654994,0.00154732474966793,2.75635336624497e-05,2.23025534057557e-05
0.0010087967520235,0.00154855260542349,2.46982809178999e-05,2.34710994799457e-05
0.00100405222201659,0.00154609689391237,2.03982766849155e-05,2.1347726116501e-05
0.00100101238495185,0.00154436835911085,1.67070781531739e-05,1.8913332687328e-05
0.000998091757183776,0.00154305705684764,1.46261736849853e-05,1.9063351264373e-05
0.000996041357281289,0.0015457392660224,1.24078352004963e-05,2.03923256961413e-05
0.00099116569704805,0.00154253253594235,7.67348457096524e-06,1.86901160923296e-05
0.000984621106661624,0.00153697738271817,8.44483445988317e-07,1.27548659834146e-05
0.000978660641828814,0.00153036126675375,-5.07376885537098e-06,5.48770201599507e-06
0.000974202214133871,0.00152112254626289,-8.54245758027312e-06,-1.56995494873827e-06
0.000972068367723725,0.00151301631409027,-1.17507903977607e-05,-1.06804590622339e-05
0.000966465530780883,0.0015020132960089,-1.75596783349434e-05,-2.24210801226648e-05
0.00095738178237568,0.00149024733842893,-2.53155015597962e-05,-3.15261228735624e-05
0.000951945838448157,0.0014902950221476,-3.15377541167964e-05,-3.23374328490689e-05
0.000949716624600686,0.00149730452879098,-3.42695150867846e-05,-2.62732767910171e-05
0.000948679503719777,0.00150176295648592,-3.46586996696151e-05,-1.96908401471304e-05
0.000949347075781052,0.00150554189118993,-3.41243226527113e-05,-1.56893876209638e-05
0.000950980243145242,0.00150971421657289,-3.22241781782502e-05,-1.23980901744272e-05
0.000956189689409118,0.00151301631409027,-2.82566650728811e-05,-8.56715418350436e-06
0.000960397777581082,0.00151396998846352,-2.29779801172733e-05,-5.69993798458337e-06
0.000966215191257905,0.00151714095575458,-1.71718984145042e-05,-3.74064175405796e-06
0.000973928032751562,0.00152131328113754,-9.99262306725771e-06,6.73789439392445e-07
0.000983989297389346,0.00152871617845989,-5.94591292737767e-07,9.4032927010792e-06
0.000992858469060568,0.00153878936402734,9.58989343525997e-06,1.95659280264473e-05
0.00100195413839544,0.00154690751712963,1.82360933834256e-05,2.74095616345967e-05
0.00101020342172405,0.00155165204713655,2.52116940102147e-05,3.2680179261274e-05
0.00101583010052622,0.00155471572606061,3.20606435266192e-05,3.66653055491381e-05
0.00102231508626432,0.00155661115387745,3.84110113531687e-05,3.82416909313369e-05
0.00102587944423434,0.00155301103311843,4.1183977245994e-05,3.48882795866081e-05
0.00102261310950596,0.00154404649400988,3.82679911529761e-05,2.64784080388623e-05
0.00101590162610421,0.00153306731778784,3.14151730915956e-05,1.56839371708295e-05
0.0010088325148125,0.00152273187176775,2.44701336612212e-05,5.50567515163359e-06
0.00100440984990655,0.00151524552793774,1.9784841671759e-05,-1.73712762879593e-06
0.00100216871512942,0.00151283750014529,1.72057585458624e-05,-4.32098282322881e-06
0.00100004678964894,0.00151369580708121,1.55075663844432e-05,-2.48323900683019e-06
0.000998234808339763,0.00151748666271488,1.36294036128166e-05,8.29606651074535e-07
0.000996279775874601,0.00151954898354703,1.10079956158072e-05,2.67077372983687e-06
0.000992476999311268,0.00151886949055609,7.73352629716641e-06,2.89680981713817e-06
0.000989246427371885,0.00151867875568144,4.3711643697013e-06,2.59716322311309e-06
0.000986492692619126,0.00151807078826849,1.27471524750606e-06,1.24246978601423e-06
0.000983345567187403,0.00151413688147884,-1.6537885243873e-06,-1.98981505940107e-06
0.0009807110417313,0.00151057252350882,-4.46551863775831e-06,-5.52112943314825e-06
0.000977814255822555,0.00150864133290299,-7.17551140559292e-06,-7.71502943430397e-06
0.000974988995491802,0.00150562533769759,-1.04979830935007e-05,-1.1288675728177e-05
0.000969672260860935,0.00149539718004448,-1.55325907684131e-05,-2.09494259514542e-05
0.000962674675147216,0.00148057946447012,-2.20754468478218e-05,-3.58075504650641e-05
0.00095776325212498,0.00146880158596048,-2.81873998702421e-05,-4.83934806419149e-05
0.000952959117469735,0.00146411666060189,-3.23003792023601e-05,-5.32585699450406e-05
0.00094978815017868,0.00146380671643059,-3.49029789986395e-05,-5.30593820983004e-05
0.000948560294423121,0.00146374711178226,-3.71080134751203e-05,-5.3560142459277e-05
0.000947427806104887,0.00146260270253436,-3.83876954698744e-05,-5.57147235797539e-05
0.000947594699120205,0.00146214970720707,-3.71904342852133e-05,-5.60272852025464e-05
0.000951623973347185,0.00146517762334213,-3.33880741585849e-05,-5.23824351659231e-05
0.000957477149813005,0.00147347459038941,-2.84709177125269e-05,-4.54942277405921e-05
0.000962269363538585,0.00148386964105783,-2.31810742355471e-05,-3.56912845682916e-05
0.00096802717256708,0.00149635085441773,-1.64906253931878e-05,-2.2319311925328e-05
0.000977742730244561,0.00151284942107495,-7.59032895142984e-06,-6.51669756348657e-06
0.000988316594857966,0.00152924069936518,2.27331158341371e-06,8.62549175975765e-06
0.000995600282883661,0.00154136428483512,1.0979937207397e-05,2.12200862469025e-05
0.00100283628719069,0.00155160436341789,1.7996527656537e-05,3.13686028090325e-05
0.00100995308220107,0.00155977020023884,2.4581493821718e-05,3.85332520604191e-05
0.00101699835163345,0.00156244048848393,3.145137844094e-05,4.10599505224027e-05
0.00102149254211739,0.00156098613506473,3.70629837549913e-05,3.94253536612373e-05
0.00102354294201988,0.00155923375840388,3.89118136845622e-05,3.74829663200919e-05
0.001022183956038,0.00156121263272838,3.65120365567267e-05,3.87585445844504e-05
0.00101695066791479,0.001565468404619,3.2468688483269e-05,4.29402864521397e-05
0.001014518798263,0.00156981954394695,3.00682461206745e-05,4.73051987014478e-05
0.0010149002680123,0.00157359847865096,3.00465353865779e-05,5.02192495038088e-05
0.00101505524009795,0.00157490978091417,3.03390429376069e-05,5.17277590323492e-05
0.00101294523554714,0.00157470712510986,2.87620938695475e-05,5.16310147990015e-05
0.00100951200780344,0.00157281169729302,2.48950444582752e-05,4.86728844690867e-05
0.00100343233367397,0.00156552800926733,1.92958823409699e-05,4.18356387161648e-05
0.000996518194467914,0.00155553827020754,1.24276649357142e-05,3.18967165397425e-05
0.00098953252968386,0.00154544124278076,5.28034198919265e-06,2.15182539319395e-05
0.000983810483444362,0.00153781184779476,-2.98736111332364e-07,1.3225810504746e-05
0.000979721604569054,0.00153015861094943,-3.50980574873444e-06,6.40848308174737e-06
0.000977885781400548,0.00152046689513128,-6.20794249857145e-06,-3.11958344366666e-06
0.000972795544433328,0.00150592336093923,-1.10492161656485e-05,-1.87948052458148e-05
0.000964736995979368,0.00148550280842202,-1.83688011677819e-05,-3.83156746145853e-05
0.000956559238228752,0.00146853932550784,-2.63753224603062e-05,-5.4709121398339e-05
0.000950002726912661,0.00146129140027114,-3.39868992851129e-05,-6.29781581521024e-05
0.000941324290116089,0.00145910987014233,-4.13699448975684e-05,-6.41485344421199e-05
0.000935053881111972,0.0014609576142405,-4.74491091086233e-05,-6.22065216757207e-05
0.000933742578848754,0.00146405705595357,-4.92601140980871e-05,-5.90941553342795e-05
0.000937759932146068,0.00146875390224182,-4.52092994321155e-05,-5.40977640494771e-05
0.00094412570858751,0.00147566804144788,-3.75607234909262e-05,-4.6429023109565e-05
0.000952410754705116,0.00148581275259332,-3.01073881094922e-05,-3.63136663790985e-05
0.000958395061397258,0.0014982701240939,-2.40833473782006e-05,-2.41315460732775e-05
0.000963664112309462,0.00151048907700116,-1.76745505900979e-05,-1.00732376226569e-05
0.000972855149081656,0.00152623662508944,-9.01966884798517e-06,5.47026626877626e-06
0.000983691274147705,0.00154343852659693,1.66102062041699e-06,2.1914053501799e-05
0.00099356180391084,0.00155777940498468,1.27080798161359e-05,3.83223985240489e-05
0.0010038376452826,0.00157194146942743,2.24545280211901e-05,5.27191555450363e-05
0.00101104980773031,0.00158191928755756,2.97140965563465e-05,6.25554189820112e-05
0.00101436382617735,0.00158602008736253,3.3770021084036e-05,6.66531721058195e-05
0.00101546055170659,0.00158305177587579,3.4541297834648e-05,6.5841602594038e-05
0.00101310020763279,0.00157887945049283,3.26983138292584e-05,6.13108291290603e-05
0.00100998884499007,0.00157164344618579,2.94929397125568e-05,5.38160009861975e-05
0.00100673443119135,0.00156147489318102,2.63548147804714e-05,4.5006313002852e-05
0.00100409990573525,0.00155311832148542,2.42141938446798e-05,3.73693892033536e-05
0.00100274091975337,0.00154732474966793,2.29314987672305e-05,3.15770778956572e-05
0.00100187069188778,0.0015415430987801,2.17032472376406e-05,2.59516975875291e-05
0.000999641478040306,0.00153440246191039,2.02138989046009e-05,1.9933182085218e-05
0.000998306333917757,0.00152963409004415,1.88456685582805e-05,1.53722059956584e-05
0.000996697008412898,0.00152585515534014,1.74510999322914e-05,1.21819064025591e-05
0.000994396268987433,0.00151984700678867,1.47638566142954e-05,5.89734310644662e-06
0.000988829194833588,0.00150618562139187,9.88303114239755e-06,-6.56401457651274e-06
0.000982499181181143,0.00149168977091847,3.75279102505751e-06,-2.1159712489259e-05
0.000977313576776598,0.00148043641331413,-1.94560408617999e-06,-3.17139654413003e-05
0.00097178226541175,0.00147334346016308,-7.06409498904627e-06,-3.91563211370804e-05
0.000965678749422952,0.00146206626069941,-1.28517383181968e-05,-4.96793334779342e-05
0.00095939641948917,0.00144815453577963,-1.9498262560821e-05,-6.34542652344384e-05
0.000953114089555388,0.00143940457340506,-2.52487196934759e-05,-7.18460599268525e-05
0.000950408038521292,0.00144286164300809,-2.8623913303016e-05,-6.86274159701456e-05
0.000947785433994855,0.00145299443322387,-3.0360080866788e-05,-5.85873516683316e-05
0.00094671255032495,0.00145952710268063,-3.2069786511576e-05,-5.10010385289044e-05
0.000944662150422463,0.00146232852115205,-3.36996636889529e-05,-4.85518299177248e-05
0.000945091303890425,0.00146479615359283,-3.35707477116352e-05,-4.71494451205419e-05
0.000948083457236496,0.00146752604648626,-3.06498664492728e-05,-4.34665887573804e-05
0.000952720698876422,0.00147292622762479,-2.54915029681307e-05,-3.72294454762222e-05
0.000959992465972451,0.00148454913404877,-1.88828265548853e-05,-2.76282390190489e-05
0.000967812595833099,0.00149905690545183,-1.0985362933132e-05,-1.31021466377397e-05
0.000976371823333014,0.00151518592328941,-2.47791765741983e-06,4.82534388702165e-06
0.000983333646257737,0.00153387794100511,4.74316696541144e-06,2.16911406623459e-05
0.000988531171591948,0.00154795655894021,9.4172151688155e-06,3.49119695722182e-05
0.000992536603959596,0.00155727872593872,1.29402707527335e-05,4.51697933849797e-05
0.000996697008412898,0.00156443128373809,1.79316624678543e-05,5.24216081211231e-05
0.0010039091708606,0.00156807908821577,2.45418200143729e-05,5.41017224505254e-05
0.00100969082174842,0.00156277427451457,2.95733711633575e-05,4.88269414510181e-05
0.00100965505895943,0.0015522242517605,3.00679771225858e-05,3.91645851381036e-05
0.00100640064516071,0.00154343852659693,2.67822204341217e-05,2.90049257402689e-05
0.00100370651505628,0.00153588065718893,2.3018697949699e-05,2.01586628964427e-05
0.00100102430588152,0.00152777442501631,2.06559706175395e-05,1.28827824905619e-05
0.000999152719924016,0.00152286300199407,1.87667962105925e-05,7.68497042621069e-06
0.000997102320021529,0.00152187356483183,1.609659188209e-05,4.77855226846598e-06
0.000994777738736733,0.00151984700678867,1.32312917193975e-05,3.0263546750401e-06
0.000992310106295949,0.0015175820301522,1.12975543922186e-05,8.57784712261509e-07
0.000991118013329387,0.00151550778839039,9.51937675606259e-06,-2.62371475110361e-06
0.000988352357646963,0.00151062020722748,5.68246236219344e-06,-7.91876725760533e-06
0.000981020985902606,0.00150370606802142,-8.18916736536386e-07,-1.47812068450086e-05
0.000974762497828156,0.00149850854268721,-7.67034432193959e-06,-2.09852892888332e-05
0.000971150456139472,0.00149614819861342,-1.21971565349064e-05,-2.39494925639407e-05
0.000968539772542701,0.00149458655682722,-1.45665929481548e-05,-2.50194422508522e-05
0.000966072140101918,0.00149211892438644,-1.73638905210829e-05,-2.9313879875428e-05
0.000961816368211291,0.00148292788761424,-2.2137014514079e-05,-3.85888020714245e-05
0.000956428108002431,0.00147424945081767,-2.75592636563181e-05,-4.64546079438795e-05
0.000953567084882682,0.00147799262273268,-3.13999560583701e-05,-4.4357114413626e-05
0.000951469001261532,0.00149229773833142,-3.31251162160738e-05,-3.14545543590493e-05
0.000951302108246214,0.00150631675161819,-3.35475454212583e-05,-1.51934357414505e-05
0.000952911433751072,0.00152040729048296,-3.28300762910615e-05,-2.65517954326818e-06
0.00095574861501149,0.00152968177376281,-3.0457660478054e-05,4.98279222171992e-06
0.000958514270693914,0.00153319844801417,-2.69540127798236e-05,9.52210216435067e-06
0.000962567386780225,0.00153503427118267,-2.37900505574327e-05,1.19598470743553e-05
0.000966107902890915,0.00153861055008236,-2.10086952416769e-05,1.36140775518907e-05
0.000970614014304519,0.001542723270817,-1.64617460750066e-05,1.74765843876021e-05
0.000978314934868511,0.00154941091235941,-8.45907693402025e-06,2.53855685171568e-05
0.000989282190160882,0.00156030664207379,1.8576323064874e-06,3.55846974721404e-05
0.00100021368266426,0.00157097587412452,1.18462659673864e-05,4.5360770919806e-05
0.00100805765438423,0.00157973775742875,2.01470202064999e-05,5.4403896983578e-05
0.00101474529592665,0.00158770093844539,2.68901535005589e-05,6.30609678768642e-05
0.00102014547706517,0.00159425744976148,3.19343872437886e-05,6.86469979950861e-05
0.00102422243501082,0.00159201631498434,3.46063173073924e-05,6.65711271937504e-05
0.00102361446759787,0.0015803457248417,3.51088162413768e-05,5.52255435844947e-05
0.00102293497460693,0.00156371602795816,3.47140832786764e-05,3.79830217245561e-05
0.00102394825362851,0.00154546508464009,3.42676525863859e-05,2.06501098527928e-05
0.00102349525830121,0.00153367528520079,3.35583660439313e-05,8.39375939813193e-06
0.00102097994214177,0.00152972945748147,3.23589177963814e-05,4.07487719219071e-06
0.0010202050817135,0.0015316964108763,3.10201933952947e-05,6.8657754935394e-06
0.00102000242590919,0.00153691777806984,2.9681810250991e-05,1.21854799058951e-05
0.00101739174231242,0.00153987416862691,2.78011926479436e-05,1.49365736304635e-05
0.00101414924944337,0.00153877744309768,2.48854453119763e-05,1.33579923721923e-05
0.00101054912868435,0.00153281697826487,2.10031221551785e-05,8.75315106324562e-06
0.00100637680330138,0.00152657041112008,1.62919538063043e-05,2.11703202247475e-06
0.00100048786404657,0.00151751050457421,1.06364195516986e-05,-7.04874765603415e-06
0.000993120729513212,0.0015058279935019,4.03526112813637e-06,-1.89808169244672e-05
0.000985956250784173,0.00149066457096723,-3.42831827405545e-06,-3.29913719716283e-05
0.000978219567431186,0.00147515544147226,-1.20833241568009e-05,-4.85204849279205e-05
0.000966823158670852,0.00146030196310889,-2.21484561890137e-05,-6.44706090920612e-05
0.000956583080088084,0.00144667634050109,-3.23559021351431e-05,-7.7297995321493e-05
0.000949275550203058,0.00144019135476299,-4.01342989799322e-05,-8.25197748005026e-05
0.000945317801554072,0.0014453888800972,-4.38968181349067e-05,-7.92465424921416e-05
0.00094412570858751,0.00145244607045925,-4.44793862389229e-05,-7.12182212669168e-05
0.000944685992281794,0.00146077880029552,-4.37000190910788e-05,-6.24732214686911e-05
0.00094671255032495,0.00146981486498206,-4.22030546420914e-05,-5.40390153649411e-05
0.00094845300605613,0.00147801646459201,-3.9474092926624e-05,-4.55910074765404e-05
0.000952839908173079,0.00148628958977995,-3.52969437953311e-05,-3.74824060044374e-05
0.000957739410265649,0.00149425277079658,-3.00779359591833e-05,-2.91949858758691e-05
0.000963378009997488,0.00150604257023588,-2.39024125588269e-05,-1.8161908769718e-05
