BCL,BCC,BCL_Filtered,BCC_Filtered
-,-,-,-
-0.00398676419179226,-0.00310362595937407,-7.75618292100205e-21,2.13180768180414e-20
-0.00399297499614805,-0.00310386437796738,-6.02948354303665e-06,-1.8328160770921e-06
-0.00400015139580675,-0.0031063200894785,-1.15891532654523e-05,-3.44012502583332e-06
-0.0040041568281744,-0.00310782212661637,-1.43219113785297e-05,-5.35392409769006e-06
-0.0040038468840031,-0.00310980100094086,-1.4353897609555e-05,-9.19903994999063e-06
-0.0040072085861688,-0.0031169654796699,-1.68418810867871e-05,-1.64230044381313e-05
-0.00401759171590756,-0.00312615651644209,-2.50280654140393e-05,-2.5948582140882e-05
-0.00402529263647155,-0.00313379783235775,-3.34512586897333e-05,-3.38401829973126e-05
-0.00402678275267975,-0.00313479919044967,-3.36434529416319e-05,-3.6388343882187e-05
-0.00401928448792007,-0.00313185472082226,-2.49787380392895e-05,-3.34268257221471e-05
-0.00400886559539232,-0.00312622804202008,-1.4234452486831e-05,-2.81549389693683e-05
-0.00400074744229003,-0.00312138814457584,-5.30506655894809e-06,-2.41381472342895e-05
-0.00399223589850878,-0.00311996955394563,4.32285792365938e-06,-2.28557253110273e-05
-0.00398107790834176,-0.00311913508886904,1.60438424676538e-05,-2.32936375751905e-05
-0.00397242331340452,-0.00311931390281402,2.5179560122368e-05,-2.30043399620078e-05
-0.00397232794596719,-0.00311558265182869,2.64386712496717e-05,-2.00978341186467e-05
-0.00397918248052493,-0.0031100632613935,2.03226079226246e-05,-1.50509227971449e-05
-0.0039889338009914,-0.00310477036862197,1.12140769295772e-05,-1.01491557158719e-05
-0.00399823212613059,-0.00310093182926964,2.06433042541228e-06,-6.62354495973031e-06
-0.00400828146983871,-0.00309734362944029,-6.26539990104955e-06,-3.29711582621959e-06
-0.00401519560904477,-0.00309287328081568,-1.2831765972318e-05,1.02908324662215e-06
-0.00401952290651339,-0.0030880095415121,-1.6912539373391e-05,5.10740222199618e-06
-0.00402272963659344,-0.00308614987648427,-1.93466228359234e-05,6.8791326853902e-06
-0.00402592444574383,-0.00308657902995223,-2.1234820283296e-05,6.76046382465567e-06
-0.00402696156662473,-0.00308574456487564,-2.20052526833617e-05,7.14432444740502e-06
-0.00402553105506486,-0.00308332461615352,-2.03796292929744e-05,8.78613773167593e-06
-0.00402230048312548,-0.00308283585803722,-1.64351123147359e-05,9.82798582258909e-06
-0.00401873612515546,-0.00308413523937078,-1.13198160097134e-05,8.69423439559297e-06
-0.00401283526497097,-0.00308647174158524,-5.72531856523202e-06,5.90482302291518e-06
-0.00400689864199749,-0.00308949965772031,1.92782119955768e-07,2.51105069311426e-06
-0.0040027024747552,-0.00309352893194729,6.15894163653077e-06,-1.02369251320987e-06
-0.00399713540060135,-0.00309653300622302,1.18564002064596e-05,-3.30978094104879e-06
-0.00399228358222744,-0.00309388655983726,1.66220589810455e-05,-1.66600620366684e-06
-0.00399121069855754,-0.00308773536012979,1.85593588610253e-05,4.71895301574088e-06
-0.00399409556353662,-0.00308094043022039,1.58142825474007e-05,1.26484498039097e-05
-0.00400127196319532,-0.00307525414676989,9.90099208005689e-06,1.79876849754589e-05
-0.00400476479558735,-0.00307329911430473,5.73777837830448e-06,1.99404671338596e-05
-0.00400428795840072,-0.0030736567421947,6.41041516985682e-06,2.0346069595318e-05
-0.00400283360498152,-0.00307424086774831,9.37790581396331e-06,1.98124633998449e-05
-0.00400189185153793,-0.0030774356768987,9.97851218435889e-06,1.73423265821569e-05
-0.00400390648865142,-0.00308130997904003,7.44186266813928e-06,1.36659078819753e-05
-0.00400747084662144,-0.00308341998359084,5.05530713791685e-06,1.19116045511968e-05
-0.00400739932104345,-0.0030819417883123,5.29159719122929e-06,1.37376917194382e-05
-0.00400500321418066,-0.00308005828142514,7.41875937756347e-06,1.68407765210362e-05
-0.0040027024747552,-0.0030793072628562,9.65880852934824e-06,1.77597407016201e-05
-0.00400187993060827,-0.00308122653253237,1.12340072035571e-05,1.57833594799917e-05
-0.00400074744229003,-0.003085410778845,1.21108493748359e-05,1.28223114792603e-05
-0.00399991297721344,-0.00308861750892505,1.28197739268494e-05,1.07338743138949e-05
-0.00399801754939661,-0.00308904666239301,1.47755870247073e-05,1.02958237734581e-05
-0.00399407172167729,-0.0030876638345518,1.89459845225692e-05,1.17623637654549e-05
-0.00398874306611675,-0.00308665055553022,2.41203362848411e-05,1.45144816031946e-05
-0.00398399853610984,-0.00308566111836798,2.83100364237128e-05,1.64055183104041e-05
-0.00398163819203604,-0.00308687705319387,3.15497129579583e-05,1.50454199869459e-05
-0.00397744202479375,-0.0030922414715434,3.47003508092646e-05,1.00360493505293e-05
-0.00397686982016979,-0.00310108680135529,3.53732313070843e-05,3.2502560046565e-06
-0.0039840462198285,-0.00310794133591302,2.85064404729506e-05,-2.85346367187504e-06
-0.00399937653537849,-0.00311095733111842,1.2718613997467e-05,-6.62210543466898e-06
-0.00401768708334488,-0.00311361569843386,-6.55637076020976e-06,-7.81137157038059e-06
-0.00403466248718873,-0.00311560649368802,-2.25148437761835e-05,-8.03848144499266e-06
-0.00404549861225477,-0.00311758536801251,-3.36209725250068e-05,-9.92563186668804e-06
-0.00405286574678813,-0.00312167424688782,-4.2611552747261e-05,-1.42821480336359e-05
-0.00406219983471631,-0.00312800426054026,-5.10055137887613e-05,-1.86841337636725e-05
-0.00406919742043003,-0.003131044097605,-5.79272196543774e-05,-2.05577052989561e-05
-0.0040736796899843,-0.00313128251619831,-6.32680220656105e-05,-2.11295597694843e-05
-0.00407769704328162,-0.00313478726952,-6.8125946994575e-05,-2.40115218611037e-05
-0.00408229852213255,-0.00314242858543566,-7.17746363676949e-05,-2.98086682964258e-05
-0.0040820720244689,-0.00314731616659857,-7.16872017724873e-05,-3.46530194322453e-05
-0.00407691026192369,-0.00314803142237851,-6.77168440260718e-05,-3.48459970115406e-05
-0.00407186770867513,-0.00314446706440848,-6.30212990890314e-05,-3.06101524736571e-05
-0.00406907821113337,-0.00313931722279294,-5.87386758192953e-05,-2.40835102289775e-05
-0.00405956530926021,-0.00313087720458968,-5.04712350587143e-05,-1.60134318335715e-05
-0.00404180312405843,-0.00312255639568307,-3.3324039619317e-05,-6.49913054460629e-06
-0.00401799702751619,-0.00311375874958985,-9.26842439556924e-06,2.72779418207245e-06
-0.00399636054017309,-0.00310809630799868,1.36255668159377e-05,9.30071860271431e-06
-0.0039790513502986,-0.0031039955081937,2.89942883810299e-05,1.28027937080042e-05
-0.00397212529016288,-0.00310429353143534,3.64643265777863e-05,1.42998379481481e-05
-0.003970766304181,-0.00310536641510525,3.83665335552689e-05,1.37607431003923e-05
-0.00397321009476245,-0.00310807246613934,3.58121450835148e-05,9.90030639081104e-06
-0.00397888445728329,-0.00311687011223257,2.96655434792538e-05,2.51949146343667e-06
-0.00398643040576162,-0.00312764663265029,2.27308950494143e-05,-6.53247510078877e-06
-0.00399055504742593,-0.00313413161838839,1.83859028779901e-05,-1.46263444092627e-05
-0.00399161601016617,-0.00313885230653598,1.81067779073193e-05,-1.93458173225814e-05
-0.00398724102897889,-0.0031408550227198,2.21033262911555e-05,-1.88273483874334e-05
-0.00397853875032298,-0.00313467998115301,3.10421418688782e-05,-1.30971237648567e-05
-0.00396552109512812,-0.0031253220513655,4.46628019643544e-05,-5.25990109572347e-06
-0.00395129942603704,-0.00312129277713852,5.91636335825624e-05,3.05461737975379e-07
-0.00394203686368685,-0.00312134046085718,6.84677452870321e-05,1.59694003563199e-06
-0.00394235872878782,-0.00312143582829451,6.88336403421443e-05,1.97994895266135e-07
-0.00394971394239151,-0.00312190074455146,6.13563862197582e-05,-8.34041320482044e-07
-0.00396170639763513,-0.00312184113990314,5.04075479462825e-05,7.84558251415893e-07
-0.00397148155996094,-0.00311758536801251,4.09178957616814e-05,5.74568167324461e-06
-0.00397624993182718,-0.00310864467076329,3.61936085830375e-05,1.26131094382306e-05
-0.00397691750388846,-0.00310386437796738,3.58771995016608e-05,1.80323230458783e-05
-0.00397838377823733,-0.0031039597454047,3.59266807101704e-05,1.93587458225871e-05
-0.00398148321995039,-0.0031047584476923,3.26113374199195e-05,1.75773256047724e-05
-0.00398739600106454,-0.0031052114430196,2.64337359892246e-05,1.61302178056922e-05
-0.00399558567974482,-0.00310601014530719,1.99027028731153e-05,1.65933279517125e-05
-0.00400389456772176,-0.00310485381512963,1.19766567370574e-05,1.7302366438302e-05
-0.00401722216708792,-0.00310518760116026,-1.52095604772877e-06,1.6710131587547e-05
-0.00403707051498118,-0.00310568828020622,-2.08992580555947e-05,1.58844567714499e-05
-0.00405674004892946,-0.00310485381512963,-3.96329150312471e-05,1.63038846387562e-05
-0.00406830335070511,-0.00310486573605929,-5.06560647649573e-05,1.6951408077671e-05
-0.00407036567153726,-0.00310568828020622,-5.30299502239197e-05,1.55780796004768e-05
-0.0040680291693228,-0.00310803670335035,-5.02891049769108e-05,1.19948163465743e-05
-0.00406394029044749,-0.00311194676828067,-4.50813769269109e-05,8.24504201551242e-06
-0.00405706191403043,-0.00311590451692966,-3.83773739099265e-05,5.71170807200747e-06
-0.00404965901670808,-0.0031150223681344,-3.13682770168949e-05,3.50225102797784e-06
-0.00404387736582025,-0.00311923045630637,-2.42355858965164e-05,-1.83868511828016e-07
-0.00403337502678484,-0.00312579888855212,-1.45216398508478e-05,-6.06268775998311e-06
-0.00401997590184068,-0.00313175935338493,-5.72968855131375e-07,-1.31938712344119e-05
-0.00400520586998498,-0.00313671846012583,1.43388016278797e-05,-1.95598996727548e-05
-0.00399371409378732,-0.00314070005063415,2.51397765807286e-05,-2.30710538828677e-05
-0.00398781323360284,-0.00314021129251786,3.15115564534979e-05,-2.26970523692469e-05
-0.00398225808037866,-0.00313503760904298,3.72285638014221e-05,-1.90162182751629e-05
-0.00397532009931326,-0.00312879104189819,4.31330355734636e-05,-1.34894075356668e-05
-0.00397284054594282,-0.00312254447475341,4.5316628036229e-05,-7.06251540654156e-06
-0.0039779069410507,-0.00311417598212814,4.12658738317065e-05,4.3125709684906e-07
-0.00398376011751652,-0.00310401935005303,3.35604785409019e-05,9.38707576041314e-06
-0.00399131798692453,-0.00309406537378224,2.54530030356394e-05,1.8935155412423e-05
-0.00400153422364796,-0.00308587569510196,1.60332607449157e-05,2.66519291517256e-05
-0.00401437306489784,-0.00308065432790842,1.98298806585752e-06,3.04312505535329e-05
-0.00403271937565323,-0.0030804874348931,-1.82521572881782e-05,3.06988868628013e-05
-0.00405868316046495,-0.00307985562562082,-4.3603903576037e-05,2.9677080005048e-05
-0.00408628011264086,-0.00308094043022039,-7.09232224067619e-05,2.78532026591111e-05
-0.0041060330930968,-0.00308566111836798,-9.45473588107975e-05,2.26383107805635e-05
-0.00412071967844484,-0.00309548396441245,-0.000108464061842031,1.21537276757795e-05
-0.00412489200382781,-0.00310658234993114,-0.000112127132269499,-8.04406818213496e-07
-0.00412197137605973,-0.00311590451692966,-0.000112411138503939,-1.11012734755949e-05
-0.00412551189217042,-0.00312280673520605,-0.000116702078238078,-1.73325779959874e-05
-0.00413320089180475,-0.00312621612109042,-0.000124695056908522,-2.28690254254861e-05
-0.00413733745439872,-0.0031316997487366,-0.000129154725153487,-3.03982620181179e-05
-0.0041291954594371,-0.00314003247857287,-0.000123882422894769,-3.82658954230383e-05
-0.00411292339044353,-0.00314518232018842,-0.000108652748597324,-4.35646508869947e-05
-0.0040916087682014,-0.00314443130161949,-8.67128257158172e-05,-4.62259430194588e-05
-0.00406252169981728,-0.00314579028760137,-5.96192848787655e-05,-4.78203246132302e-05
-0.00402588868295483,-0.00314651746431097,-2.53586242581316e-05,-4.815730403369e-05
-0.00398235344781598,-0.00314183253895238,1.84503729835848e-05,-4.57299776346355e-05
-0.00393078350608251,-0.00313578862761191,6.87264719694462e-05,-4.0674982461467e-05
-0.00388380312227029,-0.00312873143724986,0.000114501242308584,-3.4899486181713e-05
-0.00385384582602059,-0.003123414702619,0.000142855626293888,-2.95093346602708e-05
-0.00384684824030687,-0.0031165840099206,0.000149079727955881,-2.39980381351132e-05
-0.00385566972825943,-0.00310879964284895,0.000139748771431926,-1.79730674711727e-05
-0.00386902116948492,-0.00310229081525152,0.000124843666724073,-1.22677088476095e-05
-0.00388435148503491,-0.00309855956426618,0.000108978782047603,-8.27923563963722e-06
-0.00389951490756958,-0.0030956389364981,9.18311793241376e-05,-6.88461241416038e-06
-0.00391776585088765,-0.00309436339702388,7.40871417886319e-05,-7.30851645994504e-06
-0.0039323093850797,-0.00309295672732334,5.89597071087246e-05,-6.34148015253993e-06
-0.00394037985446333,-0.00308740157409916,4.83629364289514e-05,-1.51590858511956e-07
-0.0039483311145503,-0.00307344216546072,4.06897943706213e-05,1.15641720169607e-05
-0.0039566876862459,-0.00305945891496294,3.28297916956778e-05,2.45099183685299e-05
-0.00396492504864484,-0.0030496241479888,2.28754607632736e-05,3.45819675755589e-05
-0.00397555851790658,-0.00304192322742481,1.13510276927121e-05,4.21244613718452e-05
-0.00398592972671567,-0.00303344744643256,1.39915867922835e-06,4.9016385834381e-05
-0.00399057888928526,-0.00302810686994236,-3.07618438986324e-06,5.34084184212609e-05
-0.00398768210337651,-0.00303086060469512,-1.42999085009822e-06,5.14823225516713e-05
-0.00398386740588351,-0.00303769129739352,2.18953311038606e-06,4.4162381775856e-05
-0.00398330712218923,-0.00304260272041575,3.23954273662362e-06,3.76808146186778e-05
-0.00398465418724145,-0.00304453391102158,2.0158341615651e-06,3.61340438104856e-05
-0.00398374819658686,-0.00304361599943733,2.42947748535079e-06,3.69413714502505e-05
-0.00397976660607854,-0.00304533261330918,6.19028306388795e-06,3.54174283447914e-05
-0.00397657179692815,-0.00304888505034954,1.04879246128425e-05,3.07347684650288e-05
-0.00397589230393721,-0.00305453557101104,1.12477689083328e-05,2.50916622370379e-05
-0.00397976660607854,-0.00306099671488981,6.72597317160574e-06,1.96682911173974e-05
-0.00398980402885699,-0.00306601542627903,-1.84216891307612e-06,1.43415744534658e-05
-0.00399887585633253,-0.00306956786331939,-1.12439992568684e-05,9.64105419635913e-06
-0.0040067913536305,-0.00307478923051293,-1.8212259872168e-05,5.93527530807981e-06
-0.00401093983715414,-0.0030793072628562,-2.21292947173886e-05,1.59510874603293e-06
-0.00401456379977249,-0.00308589953696129,-2.53983901564472e-05,-5.18910097983916e-06
-0.00401951098558372,-0.00309368390403294,-2.95481044527068e-05,-1.29763608930849e-05
-0.00402300381797575,-0.00309958476421742,-3.20906332897959e-05,-1.77860437969764e-05
-0.00402027392508232,-0.0030997993409514,-2.95388188072526e-05,-1.7410220271687e-05
-0.0040140392788672,-0.00309549588534211,-2.2367690563555e-05,-1.34270623217669e-05
-0.00400676751177117,-0.00309180039714577,-1.39712807993128e-05,-9.04614996036981e-06
-0.00399870896331721,-0.00309070367161653,-5.60676466263712e-06,-6.42654663443066e-06
-0.0039893510335297,-0.00308959502515763,3.80118099388236e-06,-5.85239981923961e-06
-0.00398178124319203,-0.00309096593206918,1.28745982720223e-05,-5.94619986618818e-06
-0.00397853875032298,-0.00309045333209356,1.70686871757482e-05,-4.70722142356303e-06
-0.00398073220138146,-0.00308758038804414,1.41435560557504e-05,-1.63415069052402e-06
-0.00398905301028806,-0.00308635253228858,6.99214242294584e-06,1.32868710043908e-06
-0.00399854207030189,-0.00308570880208664,-6.43378879230159e-07,2.02724694786597e-06
-0.00400514626533665,-0.00308783072756712,-8.28259730857017e-06,6.31419424573429e-07
-0.00401414656723419,-0.00309156197855246,-1.66368139063312e-05,-1.45858448965955e-06
-0.00402318263192073,-0.00309474486677318,-2.43294725891453e-05,-4.23450946142638e-06
-0.00402870202235592,-0.00309958476421742,-2.94237421347195e-05,-8.33242363061303e-06
-0.0040312054175857,-0.00310471076397364,-3.23260738416034e-05,-1.22408675851544e-05
-0.00403406644070544,-0.00310665387550914,-3.43808948164086e-05,-1.3233631507585e-05
-0.00403474593369639,-0.00310606974995552,-3.4769707233948e-05,-1.16302786806237e-05
-0.00403258824542691,-0.00310637969412683,-3.16720148193791e-05,-1.13985431817063e-05
-0.00402667546431276,-0.00311170834968736,-2.62471020739116e-05,-1.52652547613145e-05
-0.00402289652960876,-0.00311865825168242,-2.27910241062835e-05,-2.14187242037573e-05
-0.00402500653415957,-0.00312482137231954,-2.38080829461575e-05,-2.64789666372336e-05
-0.00402798676657598,-0.0031287195163202,-2.60232164420965e-05,-2.96365590468311e-05
-0.00402272963659344,-0.00313199777197825,-2.25459305273196e-05,-3.18928724809854e-05
-0.00401037955345986,-0.00313451308813769,-9.61983578669751e-06,-3.29110416038907e-05
-0.00399276041941407,-0.00313318986494481,8.51472125818932e-06,-3.11971876600724e-05
-0.00397994542002353,-0.00312963742790445,2.18965796648139e-05,-2.67532967312838e-05
-0.00397720360620043,-0.00312587041413012,2.28326656110964e-05,-2.12453146118027e-05
-0.00398764634058752,-0.00312044639113226,1.18657373115481e-05,-1.56080121005754e-05
-0.0040057184699606,-0.00311530847044638,-4.14469816989251e-06,-9.40230577664313e-06
-0.00401949906465406,-0.0031100632613935,-1.85980720924878e-05,-2.74270568286691e-06
-0.00402678275267975,-0.00310462731746598,-2.86161894909712e-05,2.85942868110338e-06
-0.00403258824542691,-0.0031028510989458,-3.36108869100261e-05,6.2041045430762e-06
-0.00403447175231408,-0.00310167092690891,-3.36552519324851e-05,7.85999544214207e-06
-0.00402842784097361,-0.00310120601065195,-2.97619759179572e-05,9.41629696766308e-06
-0.00401996398091102,-0.00309922713632745,-2.32825999451771e-05,1.20319347415752e-05
-0.00401191735338672,-0.00309627074577038,-1.40784200696936e-05,1.58931700398451e-05
-0.00400043749811873,-0.003092968648253,-1.20503946121486e-06,2.01909564999818e-05
-0.00398257994547963,-0.00309057254139021,1.38358942589653e-05,2.33426694574004e-05
-0.00396801256942824,-0.00308973807631362,2.66199146996125e-05,2.40881721978297e-05
-0.00396336340685865,-0.00309321898777598,3.37169415113006e-05,2.27631786032076e-05
-0.00396149182090114,-0.00309524554581914,3.54437785189096e-05,2.08767063252354e-05
-0.00395960831401398,-0.00309647340157469,3.39747382822484e-05,1.9321537226169e-05
-0.00396322035570266,-0.00310000199675572,3.08910442760112e-05,1.79156659700519e-05
-0.00396730923457797,-0.00310118216879261,2.78269900042816e-05,1.69331044815118e-05
-0.00396708273691432,-0.00310062188509833,2.71698203613491e-05,1.77437670245282e-05
-0.00396287464874236,-0.00309802312243123,2.9874374461279e-05,2.08273868777429e-05
-0.00395827316989143,-0.00309603232717707,3.38940810974273e-05,2.39273700728587e-05
-0.00395715260250286,-0.00309710521084697,3.66833933457955e-05,2.36804605085261e-05
-0.00395451807704676,-0.00310052651766101,3.81763501408521e-05,1.92592565804314e-05
-0.00395135903068537,-0.00310807246613934,3.9567364563296e-05,1.33921102458147e-05
-0.00395187163066099,-0.00311290044265392,4.03119544529321e-05,9.34373690839038e-06
-0.00395351671895484,-0.0031139137216755,3.84624805108774e-05,7.60640126253362e-06
-0.00395790362107179,-0.00311603564715598,3.34601508679103e-05,6.19233522830811e-06
-0.00396484160213718,-0.00311965960977433,2.67153823455095e-05,3.62831302291903e-06
-0.00397105240649297,-0.00312254447475341,1.95114595297092e-05,5.03886978386155e-07
-0.00397982621072687,-0.00312523860485784,1.17174391671477e-05,-2.2246204856078e-06
-0.00398949408468569,-0.00312919635350682,2.57965282385241e-06,-5.3961791272375e-06
-0.00399874472610621,-0.00313518066019897,-8.12459649824669e-06,-1.09036078255465e-05
-0.00401049876275651,-0.00314244050636533,-1.96025950559443e-05,-1.88825336644664e-05
-0.00402256274357812,-0.00315092820828725,-3.02262572269727e-05,-2.67836876026618e-05
-0.00403096699899238,-0.00315690059404973,-3.86707748961365e-05,-3.17656425111343e-05
-0.00403611684060793,-0.00315685291033106,-4.50956783709262e-05,-3.32181111239356e-05
-0.00404239917054171,-0.00315688867312006,-5.01830936449675e-05,-3.22373138659798e-05
-0.00404655957499502,-0.00315440911974961,-5.27960636628713e-05,-2.93857617557738e-05
-0.00404285216586901,-0.00314837712933881,-5.032099288659e-05,-2.41977056449434e-05
-0.00403528237553134,-0.00314102191573512,-4.21699057695616e-05,-1.67210103515086e-05
-0.00402532839926054,-0.00313308257657782,-3.11049488190656e-05,-8.29953070663245e-06
-0.00401444459047583,-0.0031249048188272,-1.9857831027769e-05,-4.82426513756283e-07
-0.00400351309797246,-0.00311789531218382,-8.45461254978918e-06,5.95239008686668e-06
-0.00399175906132216,-0.00311342496355921,3.27055900533325e-06,1.05159940848846e-05
-0.00398389124774285,-0.00311194676828067,1.25903749007507e-05,1.24702284037182e-05
-0.00398067259673313,-0.00311174411247636,1.62376121059351e-05,1.15555964345061e-05
-0.00398228192223799,-0.00311403293097215,1.4826281587077e-05,8.82683133608264e-06
-0.00398618006623865,-0.00311757344708284,1.20132057564e-05,6.04311965767616e-06
-0.00398918414051438,-0.00311871785633074,9.66560516955505e-06,4.27597331246413e-06
-0.00399242663338343,-0.00311797875869148,6.7235422925708e-06,3.41640688919266e-06
-0.00399757647499898,-0.00311969537256332,2.97910230329553e-06,2.82128322990955e-06
-0.00399969840047946,-0.00311988610743797,1.113108075019e-06,2.14094581705352e-06
-0.00399719500524968,-0.00311864633075275,3.83660171727039e-06,1.73829599873249e-06
-0.00399241471245376,-0.00311836022844077,1.07299816459674e-05,2.49697943806359e-06
-0.00398371243379786,-0.00311560649368802,1.88120254211442e-05,4.8224152154054e-06
-0.00397847914567465,-0.00311214942408499,2.50980566414097e-05,7.52088474894804e-06
-0.00397665524343581,-0.00311067122880645,2.82761625082206e-05,8.15234676446991e-06
-0.00397552275511758,-0.00311355609378553,2.91000010182285e-05,5.10414317260732e-06
-0.00397642874577217,-0.00311914700979871,2.92919809365211e-05,-8.28945187911455e-07
-0.00397791886198037,-0.0031244875862889,2.89156535904958e-05,-7.32601799530921e-06
-0.00398107790834176,-0.00312947053488913,2.53173101637337e-05,-1.27891603396128e-05
-0.00399128222413553,-0.00313358325562377,1.66588637589827e-05,-1.72995554202369e-05
-0.0040015223027183,-0.00313720721824212,6.1661621328171e-06,-2.1520962462693e-05
-0.00400906825119664,-0.0031397821390499,-9.64601318858072e-08,-2.51521737413816e-05
-0.00400967621860958,-0.00314077157621214,-5.83979651404083e-07,-2.66400254909548e-05
-0.00400950932559427,-0.00313820857633403,-6.64717737625477e-07,-2.45469717812304e-05
-0.00401630425550367,-0.00313234347893855,-5.98140194393274e-06,-1.95302978921089e-05
-0.00402616286433714,-0.00312674064199571,-1.56738043151809e-05,-1.47137633131538e-05
-0.00403419757093177,-0.00312428493048459,-2.43171680048829e-05,-1.3020770480441e-05
-0.00403935933347698,-0.00312467832116355,-2.86749803656437e-05,-1.37718225749312e-05
-0.00404114747292682,-0.00312294978636204,-2.98361302696596e-05,-1.31195826418245e-05
-0.00404082560782585,-0.00311801452148047,-2.9950655828683e-05,-8.63435517803129e-06
-0.00404083752875552,-0.00311026591719782,-2.9987993437065e-05,-2.0896504509146e-06
-0.00404146933802779,-0.00310422200585735,-3.03369722796607e-05,3.65883217172982e-06
-0.00404138589152014,-0.00309863108984417,-3.04102147089863e-05,9.02498096395277e-06
-0.00403846526375206,-0.00308898705774468,-2.7137290727636e-05,1.6443299399377e-05
-0.00402741456195203,-0.00308011788607346,-1.68619623623075e-05,2.56143870942094e-05
-0.00400989079534357,-0.00307245272829847,-1.95399622903386e-07,3.32422123531068e-05
-0.00399426245655194,-0.00306565779838906,1.72114495613499e-05,3.78094853290652e-05
-0.00397951626655556,-0.00306199807298172,3.03495973644683e-05,4.12312248750195e-05
-0.00396858477405219,-0.00305867213360501,3.95129233862947e-05,4.44875271284363e-05
-0.00396270775572704,-0.00305750388249778,4.7579861136019e-05,4.50556793547488e-05
-0.00395423197473478,-0.00305895823591699,5.44348420732038e-05,4.12209569354945e-05
-0.00395041727724178,-0.00306502598911679,5.65213406015329e-05,3.60612981359961e-05
-0.00395702147227654,-0.00306718367738626,5.08751366729674e-05,3.35751356607627e-05
-0.00396997952282307,-0.00306582469140438,3.70771036064763e-05,3.268141796986e-05
-0.00398883843355408,-0.00306952017960073,1.60695027827721e-05,2.90231272586091e-05
-0.00401550555321607,-0.00307672042111876,-9.61669900778261e-06,2.17233453948477e-05
-0.00403858447304871,-0.0030835391928875,-3.41081743968066e-05,1.41506149887762e-05
-0.00405271077470248,-0.00308768767641113,-5.01869223082761e-05,8.30801170418889e-06
-0.0040584566628013,-0.00309319514591665,-5.53139754303386e-05,3.02412143873956e-06
-0.0040562036070945,-0.00309795159685323,-5.42470011967266e-05,-1.78856466528538e-06
-0.00405403399789536,-0.00309880990378916,-5.42942615154129e-05,-4.0723896376877e-06
-0.0040592911278779,-0.00309845227589919,-5.92228364438824e-05,-4.62803492147167e-06
-0.00406687283914523,-0.00310241002454817,-6.84731105393119e-05,-8.29546633634166e-06
-0.00407701755029068,-0.00311085004275143,-7.95923802579077e-05,-1.69515024798982e-05
-0.00408555293593126,-0.00311751384243452,-8.87492728298143e-05,-2.55571729382273e-05
-0.00408489728479965,-0.00312173385153615,-9.0483103762017e-05,-2.94121232218809e-05
-0.00407471681086521,-0.00312377233050897,-8.05661691248942e-05,-3.18423740041386e-05
-0.00405387902580971,-0.00313074607436336,-5.9730017895073e-05,-3.93334959310983e-05
-0.00402345681330304,-0.00314197559010837,-3.26981085523298e-05,-5.12833680379304e-05
-0.00399340414961601,-0.00315033216180397,-3.42402295351656e-06,-6.06259962694443e-05
-0.0039638998486936,-0.00315462369648359,2.69069886087305e-05,-6.38423043786049e-05
-0.00393105768746481,-0.00315353889188402,5.70628664704421e-05,-6.41063530225064e-05
-0.00390328192134392,-0.00315244216635479,8.30323762969277e-05,-6.38624364326641e-05
-0.0038867833546867,-0.00314968843160203,9.91319294702948e-05,-6.05225383357142e-05
-0.00388460182455789,-0.00314011592508053,0.000101250307540921,-5.18985275827e-05
-0.0038939955171344,-0.00312926787908482,8.94802215913562e-05,-4.05773809979182e-05
-0.00391213917208547,-0.00311684627037324,6.92410999276637e-05,-2.94472461089797e-05
-0.00393296503621131,-0.00310422200585735,4.9609445937498e-05,-1.7106882870247e-05
-0.00394262098924047,-0.00308986920653994,3.79533265570379e-05,-1.71966163662728e-06
-0.00394421839381566,-0.00307345408639038,3.46383927597792e-05,1.39510433158389e-05
-0.00394449257519797,-0.00305997151493856,3.38888992409706e-05,2.59338759879898e-05
-0.00394723438902106,-0.00305184144090661,3.04751976525839e-05,3.5163431647906e-05
-0.00395195507716865,-0.00304254311576743,2.44516522129382e-05,4.53112582903035e-05
-0.00395678305368322,-0.00303022879542284,1.8949046971381e-05,5.56221460670206e-05
-0.003959322211702,-0.00302518624217428,1.5232234582031e-05,6.08420535161666e-05
-0.00396206402552509,-0.00302888173037062,1.16801406145837e-05,5.85666435137352e-05
-0.00396688008111,-0.00303418654407183,6.86713878532424e-06,5.24271102547075e-05
-0.00397052788558769,-0.00303956288335102,1.82164105816848e-06,4.68416088324072e-05
-0.00397282862501315,-0.00304451006916225,-1.26704769796887e-06,4.20351403135073e-05
-0.00397300743895813,-0.003051185789775,-1.91441977643949e-06,3.58797593964063e-05
-0.0039737465365974,-0.00305987614750124,-2.34095820834638e-06,2.79571376489319e-05
-0.00397524857373527,-0.00306680220763696,-5.32884173618627e-06,1.96972355703293e-05
-0.00398041033628048,-0.00307527798862922,-1.11156605681261e-05,1.20614989218388e-05
-0.00398699068945591,-0.0030838491370588,-1.70927100044206e-05,4.97542052165946e-06
-0.00399028086604362,-0.00308951157864997,-2.1036461826606e-05,-1.61116839336448e-06
-0.0039923670287351,-0.00309546012255312,-2.36593471358654e-05,-7.30096761520577e-06
-0.00399534726115151,-0.00310086030369164,-2.67782364573143e-05,-1.15349780508508e-05
-0.00399856591216122,-0.00310366172216306,-2.98806070612451e-05,-1.37908497947182e-05
-0.00399936461444882,-0.00310351867100708,-3.05714892715029e-05,-1.40316703649981e-05
-0.00399699234944536,-0.00310400742912337,-2.83656350629194e-05,-1.32149770584578e-05
-0.00399407172167729,-0.00310387629889705,-2.59126861654598e-05,-1.26730453406998e-05
-0.00399508500069886,-0.003104376977943,-2.57772972805155e-05,-1.27824310201929e-05
-0.00399674200992239,-0.0031055571499799,-2.75845052498616e-05,-1.28697875615632e-05
-0.00399823212613059,-0.00310536641510525,-2.90704012314519e-05,-1.2380474839372e-05
-0.00399831557263825,-0.00310535449417558,-2.86314758124927e-05,-1.13471552746146e-05
-0.00399653935411807,-0.00310428161050568,-2.62037018457237e-05,-9.88760162018569e-06
-0.00399363064727966,-0.00310410279656069,-2.28525991173277e-05,-8.27868139703705e-06
-0.0039908769125269,-0.00310366172216306,-2.00147172245267e-05,-7.35456347248558e-06
-0.00399030470790295,-0.00310424584771668,-1.79352616606174e-05,-7.50392172376405e-06
-0.00398679995458126,-0.00310565251741722,-1.45901221540784e-05,-7.17381447986001e-06
-0.00398097061997477,-0.00310274381057881,-7.7431384404867e-06,-3.8053410609847e-06
-0.00397304320174713,-0.003096747582957,1.50953463725824e-06,3.11986285507036e-06
-0.00396597409045542,-0.00309013146699258,9.0803610367782e-06,1.08008490165446e-05
-0.00396268391386771,-0.00308641213693691,1.25405797060477e-05,1.52902768650411e-05
-0.00396375679753761,-0.00308860558799538,1.37161179233227e-05,1.4535307324219e-05
-0.00396266007200838,-0.00309430379237555,1.58664047166542e-05,9.68490256708309e-06
-0.00395813011873544,-0.00309994239210739,2.01516798951679e-05,4.45074081935489e-06
-0.0039543988677501,-0.00310345906635875,2.58593323968953e-05,2.75596758685717e-06
-0.00394995236098482,-0.00310179013620556,3.20260833980476e-05,5.41974770048817e-06
-0.00394552969607888,-0.00309853572240685,3.72934231024828e-05,9.10035402940456e-06
-0.00394357466361372,-0.00309898871773414,3.9852082140516e-05,9.93198142596706e-06
-0.00394616150535116,-0.00310236234082951,3.90752073992279e-05,8.04753028336134e-06
-0.00395163321206768,-0.0031039597454047,3.58221226012204e-05,6.63226430716758e-06
-0.00395755791411149,-0.00310584325229187,3.02649003052376e-05,6.59006017098908e-06
-0.0039672615508593,-0.00310773868010871,2.18539659650715e-05,4.95461535538993e-06
-0.00397808575499569,-0.00311417598212814,1.29136502354686e-05,-2.00817128875682e-07
-0.0039840819826175,-0.00312086362367056,9.00002741296944e-06,-5.90162655225516e-06
-0.00398136401065373,-0.00312380809329796,1.23760337128552e-05,-7.78794085903676e-06
-0.00397738242014542,-0.00312246102824575,1.73676510080238e-05,-6.12201326941685e-06
-0.00398144745716139,-0.00312318820495535,1.61426752796165e-05,-5.58841293553285e-06
-0.00399081730787857,-0.00312774200008762,7.90399299057518e-06,-9.27196364314753e-06
-0.00400106930739101,-0.00313441772070037,-1.48749370539095e-06,-1.50389659480145e-05
-0.00400942587908661,-0.00313793439495172,-7.97910953951395e-06,-1.83591584705508e-05
-0.00401606583691036,-0.00313731450660911,-1.27148317913463e-05,-1.69836375971017e-05
-0.00402143025525989,-0.00313385743700608,-1.68163053638494e-05,-1.18991708606896e-05
-0.00402369523189635,-0.00312680024664403,-1.78532703355637e-05,-4.9809286100654e-06
-0.0040213229668929,-0.0031191827725877,-1.37880673191119e-05,2.53312889308838e-06
-0.00401579165552805,-0.00311430711235446,-6.99495296560604e-06,9.2089741344083e-06
-0.00401244187429201,-0.00311108846134475,-1.69892438691624e-06,1.27847415570743e-05
-0.00401117825574745,-0.00311115998692274,4.48015437982946e-07,1.20002604257472e-05
-0.00401234650685468,-0.00311568994019568,1.33420019208404e-07,8.84496534984706e-06
-0.00401697182756494,-0.00311743039592686,-2.16907268224856e-06,7.270033873898e-06
-0.00402184748779818,-0.00311603564715598,-5.95053081223308e-06,8.82626766635559e-06
-0.00402517342717489,-0.00311421174491714,-9.16165418201542e-06,1.07915977871588e-05
-0.00402749800845969,-0.00311547536346169,-9.60925096530409e-06,9.67004362844871e-06
-0.00402715230149938,-0.00312038678648393,-7.6011934414785e-06,5.24475295287823e-06
-0.00402469658998827,-0.00312567967925547,-5.21189184225644e-06,-4.28074510902164e-07
-0.00402330184121739,-0.00313199777197825,-2.87740230396401e-06,-6.67928161322497e-06
-0.00402069115762062,-0.00314003247857287,1.42910552291485e-06,-1.42314631666181e-05
-0.00401376509748489,-0.00314703006428659,8.74052819239741e-06,-2.207631049765e-05
-0.00400668406526351,-0.00315235871984713,1.59001292796897e-05,-2.74552731878052e-05
-0.00400611186063956,-0.00315530318947453,1.75442057133982e-05,-2.95110429211434e-05
-0.00401269221381499,-0.00315433759417162,1.20447134168693e-05,-3.01635855813256e-05
-0.00401990437626269,-0.00315470714299125,4.35814154649212e-06,-3.03738945010895e-05
-0.00402337336679538,-0.00315257329658111,8.35080365223502e-07,-2.8362306614011e-05
-0.00402508998066723,-0.00314761418984021,1.07403630687194e-06,-2.31943323419663e-05
-0.00402696156662473,-0.00314022321344752,-2.1173764401829e-06,-1.74764715170366e-05
-0.00403775000797212,-0.00313648004153252,-1.28166771328672e-05,-1.39977368929853e-05
-0.00405018353761336,-0.00313515681833963,-2.5079579318912e-05,-1.16123316744416e-05
-0.00405565524432988,-0.00312880296282786,-2.97998329575328e-05,-7.2419918001068e-06
-0.00405076766316698,-0.00312173385153615,-2.66129415069574e-05,-6.447280193954e-07
-0.00404769206331325,-0.00311510581464206,-2.37617880500433e-05,5.78692551261978e-06
-0.00405054116550333,-0.00310955066141788,-2.62483901313955e-05,1.11966285832474e-05
-0.00405418896998101,-0.00310270804778981,-2.99329639796253e-05,1.69436293298439e-05
-0.00405056500736266,-0.00309559125277944,-2.9288074860733e-05,2.29093079895301e-05
-0.00404729867263428,-0.00309236068084006,-2.5467253380592e-05,2.62225203806287e-05
-0.00404528403552079,-0.0030933501180023,-2.28104266256298e-05,2.49543039604772e-05
-0.0040413620496608,-0.00309581775044309,-2.15434855594963e-05,2.09729098226656e-05
-0.00403639102199024,-0.00309835690846186,-1.88894815814673e-05,1.76131945854244e-05
-0.0040342214127911,-0.00310028809906769,-1.47987810935435e-05,1.58888057312547e-05
-0.00402878546886357,-0.00310093182926964,-1.13086801049938e-05,1.44534408768171e-05
-0.00402189517151685,-0.00310146827110459,-7.41223669509672e-06,1.22300769369014e-05
-0.00401347899517292,-0.00310484189419996,3.13817639133311e-07,9.27723702544979e-06
-0.00400211834920158,-0.00310738105221874,1.1914822683963e-05,5.3758121947209e-06
-0.00398875498704642,-0.00311293620544292,2.32999493555834e-05,-2.83395630769693e-07
-0.00397672676901381,-0.00311871785633074,3.17909840638033e-05,-7.12968891519376e-06
-0.00396974110422975,-0.00312300939101037,3.82037073447579e-05,-1.22193465740296e-05
-0.00396711849970332,-0.00312336701890034,4.20822905559447e-05,-1.29163760566212e-05
-0.00396581911836977,-0.00312047023299159,3.88615704551438e-05,-1.03899208030617e-05
-0.00397681021552147,-0.00311741847499719,2.46966666316538e-05,-8.51808206441407e-06
-0.00400111699110967,-0.00311673898200625,2.28839848292772e-06,-8.49753719143799e-06
-0.00402247929707046,-0.00311496276348607,-2.04256814695953e-05,-6.60629213671501e-06
-0.00403326773841785,-0.00310678500573546,-3.67110481938911e-05,4.41402052121516e-07
-0.00404133820780147,-0.00309778470383791,-4.51411875440904e-05,9.36991044543891e-06
-0.00404590392386341,-0.00309213418317641,-4.84356742782811e-05,1.32026614616033e-05
-0.00404346013328195,-0.00309624690391105,-4.95450293440844e-05,1.0545875940441e-05
-0.00403845334282239,-0.0030972005782843,-4.85825822392698e-05,8.20764529105752e-06
-0.00403436446394709,-0.00309116858787349,-4.31891074904954e-05,1.25288799071322e-05
-0.00402261042729678,-0.0030842306068081,-3.22211564119289e-05,2.1082146176612e-05
-0.00400532507928163,-0.00307825822104563,-1.85594132042925e-05,2.59913447487588e-05
-0.00399137759157286,-0.00307924765820787,-6.95832316230236e-06,2.3533725361178e-05
-0.00398526215465439,-0.0030865551880929,6.99156636168284e-07,1.69614441353614e-05
-0.00397734665735642,-0.00309233683898072,6.50400876648252e-06,1.07668283125885e-05
-0.00396735691829663,-0.00309656876901202,1.30657372173515e-05,5.9670558340493e-06
-0.00396014475584893,-0.00310031194092702,2.09368492160096e-05,1.57001583435497e-06
-0.0039505484074681,-0.00310436505701334,2.97754607459762e-05,-2.45136660276554e-06
-0.00393809103596753,-0.00310738105221874,3.97128170001898e-05,-5.19921852160675e-06
-0.00392800592947042,-0.00310741681500773,4.99767758435812e-05,-6.19943295483395e-06
-0.00391914867872886,-0.00310629624761917,5.7421494894954e-05,-5.5803281369302e-06
-0.00391738438113835,-0.00310509223372294,5.83465270885028e-05,-3.91578197418773e-06
-0.00392348789712714,-0.00310384053610805,5.21363422854045e-05,-2.42378841599541e-06
-0.00393222593857204,-0.00310229081525152,4.25588229781963e-05,-2.32252825430843e-06
-0.00393874668709914,-0.0031036140384444,3.50341858750066e-05,-3.63371526578378e-06
-0.00394163155207822,-0.00310649890342348,3.21491808519586e-05,-5.44804286420961e-06
-0.00394254946366247,-0.00310754794523406,3.16923347756738e-05,-7.3008621193898e-06
-0.0039433362450204,-0.00310848969867764,2.96287049857963e-05,-9.23536866083467e-06
-0.00394817614246465,-0.00311064738694712,2.48514938434241e-05,-1.07655561659885e-05
-0.00395445847239843,-0.00311164874503903,1.9459593024382e-05,-1.11892611327499e-05
-0.00395905995124936,-0.00311042088928347,1.41745068349187e-05,-1.0903180070899e-05
-0.00396719002528131,-0.00311012286604183,6.51148071820622e-06,-1.10979950508763e-05
-0.00397859835497131,-0.00311181563805435,-4.30100301277659e-06,-1.22377436753511e-05
-0.00398763441965785,-0.00311399716818316,-1.3397596125453e-05,-1.39862425826291e-05
-0.00399020934046563,-0.00311528462858704,-1.53062934178507e-05,-1.59648657827426e-05
-0.00398784899639183,-0.00311533231230571,-1.17298077350093e-05,-1.68913486262185e-05
-0.00398607277787165,-0.00311361569843386,-1.00649551640065e-05,-1.4003410184619e-05
-0.00399105572647188,-0.00310618895925218,-1.43195336869617e-05,-6.2456475661564e-06
-0.00399982953070578,-0.00309618729926272,-2.16366070971588e-05,2.26943891399832e-06
-0.00400699400943482,-0.00309319514591665,-2.81009908036067e-05,5.55641982271012e-06
-0.00401290679054897,-0.00309600848531774,-3.31711160373309e-05,3.36706749876284e-06
-0.00401672148804197,-0.00309770125733025,-3.64615427783068e-05,2.020992854785e-06
-0.00401650691130799,-0.00309216994596541,-3.45079728699339e-05,5.9014224589551e-06
-0.00400785231637074,-0.00308741349502882,-2.44729745903961e-05,1.13692389270562e-05
-0.0039931657310227,-0.00308777112291879,-9.25805547147936e-06,1.18322855048841e-05
-0.00398036265256182,-0.00309250373199604,3.94806556059092e-06,6.35753316862459e-06
-0.0039772155271301,-0.00309841651311019,9.79668385781774e-06,-1.52458339643652e-08
-0.00397963547585222,-0.0031017782152759,8.71739140531261e-06,-2.94714733317369e-06
-0.0039813401687944,-0.00310151595482325,6.32196969755406e-06,-2.42507649640111e-06
-0.00398036265256182,-0.00309957284328776,9.38329676413639e-06,-5.12996758997356e-07
-0.00397224449945953,-0.00309722442014363,1.9958795055026e-05,1.23425234312847e-06
-0.0039597036814513,-0.00309624690391105,3.24322183748761e-05,1.97427562255578e-06
-0.00395407700264913,-0.00309813041079822,3.87660943703444e-05,1.702187041072e-06
-0.00395712876064353,-0.00309730786665129,3.77061901520562e-05,1.46962738121206e-06
-0.00396013283491926,-0.00309611577368473,3.60685752299578e-05,1.68693129414009e-06
-0.00395664000252724,-0.00309880990378916,3.97896646487101e-05,5.82766456689552e-07
-0.00395072722141309,-0.00310276765243814,4.69953063516185e-05,-3.3816122717436e-06
-0.00394721054716173,-0.0031063200894785,5.1628629575804e-05,-7.87564714460688e-06
-0.00394924902613455,-0.00310697574061011,5.01768515755815e-05,-8.32875510656462e-06
-0.00395886921637471,-0.0031028868617348,4.20288171614284e-05,-3.70993282894733e-06
-0.00397421145285436,-0.00309780854569724,2.69951786895668e-05,1.95038209024026e-06
-0.00399446511235625,-0.00309388655983726,7.01758593091413e-06,4.71448248562363e-06
-0.00401457572070215,-0.00309367198310327,-1.18253290326513e-05,4.84602504549209e-06
-0.00402779603170133,-0.00309617537833305,-2.39056078967674e-05,4.36108553219898e-06
-0.00403329158027718,-0.00309641379692637,-3.02824687325425e-05,3.03355491379796e-06
-0.00404076600317752,-0.00309891719215615,-3.66481083770967e-05,-5.5873931976984e-07
-0.00404950404462242,-0.00310574788485455,-4.52225612500645e-05,-5.26509066945306e-06
-0.00405755067214672,-0.00310773868010871,-5.21907762075285e-05,-7.36946837385877e-06
-0.00405846858373097,-0.00310380477331905,-5.3708093944265e-05,-4.49939597341309e-06
-0.00405567908618922,-0.00309793967592357,-5.15134275982033e-05,2.06203151225686e-06
-0.00405671620707012,-0.00309212226224674,-5.12791271856072e-05,8.97088703874952e-06
-0.00406247401609862,-0.00308715123457618,-5.67707362568136e-05,1.33566498567281e-05
-0.00407068753663823,-0.00308660287181156,-6.62613759242068e-05,1.38021246434311e-05
-0.00407793546187493,-0.00309056062046055,-7.39196127178111e-05,1.05049225469711e-05
-0.00407959247109845,-0.00309648532250436,-7.47010000404642e-05,5.45160650154938e-06
-0.00407334590395367,-0.00309954900142843,-6.84718337983932e-05,1.68627801813154e-06
-0.00406266475097327,-0.00310009736419304,-5.92377723508994e-05,1.30088681957951e-06
-0.00405298495608479,-0.00309891719215615,-5.06945798501445e-05,3.82729360373313e-06
-0.00404763245866492,-0.00309573430393543,-4.39358107626426e-05,6.78003655592435e-06
-0.0040425064589087,-0.00309436339702388,-3.91063743539116e-05,7.92679245151356e-06
-0.00403702283126252,-0.00309593695973974,-3.63265183300029e-05,7.10786536095886e-06
-0.00403461480347006,-0.00309821385730588,-3.40420424844437e-05,5.87689094510818e-06
-0.004031515361757,-0.00309780854569724,-2.94769053280342e-05,5.44864218789531e-06
-0.00402231240405514,-0.00309845227589919,-2.22226259070274e-05,5.28071849266614e-06
-0.00401284718590064,-0.00310133714087827,-1.43387885199476e-05,3.8443478074973e-06
-0.00400401377701841,-0.00310428161050568,-5.42072587368734e-06,3.8895433676269e-07
-0.00399068617765225,-0.00310896653586427,8.17428576998271e-06,-4.52904442712716e-06
-0.00397126698322695,-0.00311601180529665,2.61884585651748e-05,-9.80520229030387e-06
-0.00395525717468602,-0.00312018413067961,4.09722446072384e-05,-1.41452186617059e-05
-0.00395011925400014,-0.00312140006550551,4.58981334827886e-05,-1.59348642842667e-05
-0.00395180010508299,-0.0031211258841232,4.39278889335977e-05,-1.42140493870618e-05
-0.00395306372362755,-0.00311775226102783,4.24452839536959e-05,-1.03429311627917e-05
-0.00395127558417771,-0.00311417598212814,4.26361364126216e-05,-7.53012226842273e-06
-0.0039520742864653,-0.0031153680750947,4.08257863913331e-05,-7.71202792123183e-06
-0.00395605587697362,-0.00311759728894218,3.83945685863807e-05,-9.47887732393161e-06
-0.00395144247719303,-0.00311826486100345,4.17410028782351e-05,-9.786154341927e-06
-0.00394021296144801,-0.00311480779140042,5.11790830467916e-05,-7.04973003626913e-06
-0.00393452667799751,-0.00311131495900839,5.78385839793922e-05,-1.88472549043279e-06
-0.00393652939418133,-0.00310467500118464,5.52980451697141e-05,4.19683676836813e-06
-0.00394407534265967,-0.00309964436886575,4.83467006579262e-05,9.55164956405468e-06
-0.00394482636122861,-0.00309708136898764,4.56472604152024e-05,1.26683974451927e-05
-0.00394233488692849,-0.00309582967137275,4.8103304215624e-05,1.34410397672988e-05
-0.00394301437991943,-0.00309625882484071,4.96507249354698e-05,1.40085507452543e-05
-0.00394430184032332,-0.00309368390403294,4.68501629242259e-05,1.64647459753726e-05
-0.00394706749600574,-0.00309025067628924,4.22576424885829e-05,1.93537940258318e-05
-0.00395400547707113,-0.00309221762968407,3.88645877824557e-05,1.83384457974664e-05
-0.00395548367234967,-0.00309901255959347,3.57680421493671e-05,1.15376084268878e-05
-0.00396032356979391,-0.00310717839641442,3.05244454105917e-05,2.80045106855704e-06
-0.00396969342051109,-0.00311254281476395,2.31682714325e-05,-2.07243992870418e-06
-0.00397520089001661,-0.00311210174036632,1.64451096371338e-05,-1.79392157612102e-06
-0.00397932553168091,-0.00311092156832943,1.30840369013896e-05,-4.92662068928974e-07
-0.00398025536419483,-0.00311223287059265,1.36785313910965e-05,-2.09408391044835e-06
-0.00397622608996785,-0.00311558265182869,1.68115416416152e-05,-5.65425678375982e-06
-0.00397341275056676,-0.00311740655406753,2.04936789412577e-05,-7.34733484321656e-06
-0.00397164845297625,-0.00311555880996935,2.29309299856922e-05,-5.75496845519758e-06
-0.00397391342961272,-0.00311298388916158,2.20082777410325e-05,-3.23168145609689e-06
-0.00398017191768717,-0.00311102885669642,1.54230845899958e-05,-2.17621388408821e-06
-0.0039932014938117,-0.00311135072179739,2.85982652287656e-06,-2.10069901158405e-06
-0.00400974774418758,-0.00311090964739976,-1.23584492249423e-05,-1.55847049260997e-06
-0.00402417206908298,-0.00310910958702025,-2.54597861268281e-05,-1.30058046553342e-06
-0.00403260016635657,-0.00311139840551605,-3.44999475459209e-05,-3.18460907657443e-06
-0.00404094481712251,-0.00311453361001811,-4.16692330956898e-05,-6.39510483937915e-06
-0.00405032658876935,-0.00311480779140042,-5.04206820227189e-05,-7.47830186005022e-06
-0.00406394029044749,-0.00311206597757733,-6.20306363841099e-05,-5.0472864811294e-06
-0.00407593274569111,-0.00310835856845132,-7.44837971640863e-05,-2.12730009549203e-06
-0.00408471847085467,-0.00310879964284895,-8.37003160267302e-05,-2.10875444797143e-06
-0.00409061933103915,-0.00311025399626815,-8.63747897990657e-05,-4.29696460490473e-06
-0.00408692384284281,-0.00311054009858013,-8.26486178486616e-05,-5.90922721986583e-06
-0.00407891297810751,-0.00311194676828067,-7.53365666229041e-05,-7.00740918222335e-06
-0.00407084250872388,-0.00311537999602437,-6.58042089258186e-05,-1.01037951763543e-05
-0.00405861163488696,-0.00311832446565178,-5.2435136972659e-05,-1.52567558598406e-05
-0.0040417435194101,-0.00312287826078405,-3.50785622026143e-05,-1.92727094276544e-05
-0.00402575755272851,-0.00312389153980562,-1.90685950804977e-05,-2.06448337482401e-05
-0.00401835465540616,-0.00312443990257024,-1.13392397436569e-05,-2.17855747678254e-05
-0.00402044081809764,-0.00312625188387942,-1.2621335092086e-05,-2.44962154940823e-05
-0.0040258290783065,-0.0031283022837819,-1.59522437600739e-05,-2.6303090704458e-05
-0.00402039313437898,-0.00312501210719419,-1.28509928071095e-05,-2.40721940036811e-05
-0.00400785231637074,-0.00312011260510162,6.75043860868707e-07,-1.89857468548623e-05
-0.0039877893917435,-0.00311511773557173,2.26685938091334e-05,-1.46779231883545e-05
-0.00396379256032661,-0.00311164874503903,4.63425288904575e-05,-1.19362239574837e-05
-0.00394529127748557,-0.00310859698704463,6.31927725354127e-05,-8.73398147795148e-06
-0.00394166731486722,-0.00310409087563103,6.8564936559766e-05,-4.61834501125365e-06
-0.00394606613791383,-0.0031002165734897,6.47329542794396e-05,-1.22851422397053e-06
-0.0039532902212912,-0.00309690255504266,5.65584576539073e-05,1.56264653186228e-06
-0.00396426939751323,-0.0030922057087544,4.5370235668925e-05,6.17676562983057e-06
-0.00397970700143021,-0.00308564919743831,3.02688010190783e-05,1.30057047737241e-05
-0.00399653935411807,-0.00307900923961456,1.36377780253755e-05,1.88680193092804e-05
-0.00400973582325791,-0.00307558793280053,8.0371988842177e-08,2.12710011121442e-05
-0.00401885533445211,-0.00307704228621973,-9.91474226496203e-06,2.1399745561867e-05
-0.00402858281305926,-0.00307644623973645,-1.96922650296426e-05,2.1245529113046e-05
-0.00403836989631473,-0.00307562369558952,-2.89967906250809e-05,2.05843141208466e-05
-0.00404102826363017,-0.00307859200707626,-3.25342404770519e-05,1.90303382371035e-05
-0.00403507971972702,-0.00307906884426289,-2.79994780657404e-05,1.8518307372545e-05
-0.00402814173866163,-0.00307582635139384,-2.02675442213224e-05,2.07015272102459e-05
-0.0040220501436025,-0.00307338256081239,-1.47210824982866e-05,2.35242196386707e-05
-0.00401684069733862,-0.00307350177010904,-1.10041472645272e-05,2.36305181182338e-05
-0.00401223921848769,-0.00307570714209718,-6.44499023634733e-06,2.14502755278128e-05
-0.00400656485596686,-0.00307608861184648,-1.06418971044776e-06,2.08550984895371e-05
-0.00399898314469952,-0.00307264346317312,4.62113053326691e-06,2.38237221753607e-05
-0.00399242663338343,-0.00306979436098304,1.25215805927916e-05,2.80606561256914e-05
-0.00397892022007228,-0.00306668299834031,2.30803440998335e-05,3.02224649579902e-05
-0.00397061133209534,-0.00306748170062791,3.17505103372073e-05,2.93712534801068e-05
-0.00396763109967894,-0.00307084340279361,3.41522485182851e-05,2.68751311472091e-05
-0.00396848940661486,-0.0030725123329468,3.2273702274643e-05,2.47951348205458e-05
-0.00396821522523255,-0.0030725123329468,3.10317945405138e-05,2.47926193828452e-05
-0.0039681317787249,-0.00307087916558261,3.09791896768339e-05,2.68941427149109e-05
-0.00396963381586276,-0.00306882876568012,2.90997662239396e-05,2.87731442692411e-05
-0.00397207760644422,-0.00307010430515434,2.47733423055287e-05,2.7604167016317e-05
-0.0039759995923042,-0.00307501572817658,1.99091476871687e-05,2.29547665850534e-05
-0.0039817574013327,-0.00308132189996969,1.46395813882851e-05,1.66536750290724e-05
-0.00398654961505828,-0.00308784264849679,7.95229163304299e-06,1.00059346620926e-05
-0.00399173521946282,-0.00309534091325646,1.50849601736814e-06,2.96045312559772e-06
-0.0039954187867295,-0.00310211200130653,-2.25725090404085e-06,-3.93754769750849e-06
-0.00399746918663199,-0.00310721415920342,-4.86723028073384e-06,-9.04453661800278e-06
-0.00399969840047946,-0.00311007518232317,-9.08627876683681e-06,-1.18465927844768e-05
-0.00400244021430255,-0.00311229247524097,-1.21586615227941e-05,-1.38277987070587e-05
-0.00399831557263825,-0.00311483163325975,-8.46338648368305e-06,-1.63330155774114e-05
-0.00398888611727274,-0.0031173111866302,-1.26437947588354e-07,-1.94985620291566e-05
-0.00398635888018363,-0.00312323588867401,1.54380576073944e-06,-2.42966289765219e-05
-0.00399794602381861,-0.00313166398594761,-1.14809796168728e-05,-3.33922993944164e-05
-0.00402145409711922,-0.00314595718061669,-3.44483522771828e-05,-4.78966217401762e-05
-0.00404195809614409,-0.0031629087426012,-5.57326859031215e-05,-6.44802251043578e-05
-0.0040520432026412,-0.00317623634196736,-6.84040888564879e-05,-7.76713784938515e-05
-0.00405747914656872,-0.00318241138353416,-7.29115026004684e-05,-8.44541393468204e-05
-0.00405622744895383,-0.00318328161139975,-7.18988520161755e-05,-8.53058315027417e-05
-0.0040493729143961,-0.00318051595571732,-6.63841543754416e-05,-8.1815156534275e-05
-0.0040365102312869,-0.00317295808630932,-5.53774128180045e-05,-7.53346727457804e-05
-0.00401915335769375,-0.00316542405876065,-3.66003977923756e-05,-6.75563465179241e-05
-0.00399171137760349,-0.00315873641721823,-9.43409898252078e-06,-6.01585664665907e-05
-0.00395913147682735,-0.00315026063622598,2.07138741135185e-05,-5.31142647476489e-05
-0.00393618368722103,-0.00314248819008399,4.36779673304252e-05,-4.44663550568774e-05
-0.00392771982715844,-0.00313067454878536,5.32506993996573e-05,-3.24664039443679e-05
-0.00392773174808811,-0.00311466474024443,5.25172880201912e-05,-1.75551350491016e-05
-0.00393019938052889,-0.00309993047117772,4.75775852017141e-05,-2.08088974204766e-06
-0.00394042753818199,-0.00308619756020293,3.88722106367534e-05,1.16321178207172e-05
-0.00395679497461289,-0.00307481307237226,2.35904016902194e-05,2.2966415432379e-05
-0.00397217297388154,-0.00306428689147752,4.98233278748695e-06,3.28954023872983e-05
-0.00398566746626302,-0.00305612105465657,-7.20276505614408e-06,4.19261742802115e-05
-0.00398674034993293,-0.00304957646427014,-7.2955624205679e-06,4.83799645400691e-05
-0.00397772812710572,-0.00304769295738297,-2.03365392234989e-07,4.98594966029466e-05
-0.00397317433197345,-0.00305125731535299,5.17323194377275e-06,4.68064456780074e-05
-0.00397319817383278,-0.00305483359425268,5.74570552176286e-06,4.3216446949195e-05
-0.00397317433197345,-0.00305588263606326,4.68789540171903e-06,4.27051732089165e-05
-0.00397373461566774,-0.00305331963618515,4.83900926295428e-06,4.47954352642966e-05
-0.00397350811800409,-0.00305260438040521,5.64848093330172e-06,4.6244427999434e-05
-0.0039726736529275,-0.00305380839430144,6.0281546557767e-06,4.51519171233717e-05
-0.00397231602503753,-0.00305693167787383,6.63232861127138e-06,4.23908194047358e-05
-0.00397120737857863,-0.00305976885913425,8.30852178306429e-06,3.97521093938057e-05
-0.00396963381586276,-0.00306159276137309,1.04467042524462e-05,3.83569718006874e-05
-0.00396790528106125,-0.00306168812881041,1.2063571519582e-05,3.85377642535392e-05
-0.003966951606688,-0.00306147355207643,1.32016591264816e-05,3.95527467362422e-05
-0.00396702313226599,-0.00306158084044342,1.41776547400884e-05,3.93359486521696e-05
-0.00396701121133633,-0.00306577700768572,1.44576258287884e-05,3.60611786235018e-05
-0.00396841788103687,-0.00307168978879987,1.35303234888254e-05,3.03892709673743e-05
-0.00396933579262112,-0.00307751912340636,1.23802948909014e-05,2.51402728897953e-05
-0.00397048020186902,-0.00308111924416538,1.28489413776274e-05,2.24206597005401e-05
-0.0039681317787249,-0.00308172721157832,1.55293330363558e-05,2.18009605677046e-05
-0.00396447205331755,-0.00308295506733388,1.91788867408834e-05,2.13116314880891e-05
-0.00396206402552509,-0.00308605450904694,2.2270611258172e-05,1.93576684896861e-05
-0.00396128916509683,-0.00308984536468061,2.42813301913768e-05,1.56142400220315e-05
-0.00396047854187957,-0.00309511441559281,2.51998530141435e-05,1.08426468325754e-05
-0.00396181368600212,-0.00310107488042562,2.45280640993548e-05,5.88914010820865e-06
-0.00396541380676113,-0.00310726184292208,2.13935970280658e-05,3.86271130145855e-07
-0.00397204184365522,-0.00311484355418942,1.55520113550734e-05,-7.07857151382123e-06
-0.00398043417813982,-0.00312550086531048,8.11106826622306e-06,-1.66954437086211e-05
-0.00398738408013487,-0.00313491839974632,1.25452184560574e-06,-2.59775877363653e-05
-0.00399233126594611,-0.00314185638081171,-3.16619600112392e-06,-3.17865911961959e-05
-0.0039954545495185,-0.00314379949234721,-5.29761322093803e-06,-3.3326710790365e-05
-0.00399788641917029,-0.00314209479940503,-7.15814233909962e-06,-3.18316115783974e-05
-0.00400122427947666,-0.00313966292975324,-9.98557632792091e-06,-2.79934760315507e-05
-0.00400341773053513,-0.00313366670213143,-1.21030431532997e-05,-2.17532509036676e-05
-0.00400321507473082,-0.00312656182805072,-1.0947636939493e-05,-1.45060565079279e-05
-0.00400047326090772,-0.00312145967015384,-7.4898005968182e-06,-9.089895482012e-06
-0.00400056862834505,-0.00311965960977433,-6.91700683718882e-06,-6.65752034645881e-06
-0.00400649333038886,-0.00311862248889342,-1.3655932866418e-05,-5.29683264897645e-06
-0.00402036929251965,-0.00311639327504595,-2.65102181759368e-05,-2.88227087368785e-06
-0.00403602147317061,-0.00311284083800559,-3.97590820394031e-05,-4.00342128757015e-08
-0.00404232764496372,-0.00311368722401185,-4.84864535943465e-05,8.10464319057235e-07
-0.00404654765406535,-0.00311532039137604,-5.20265684369585e-05,-1.59875189780661e-06
-0.00404980206786406,-0.003119635767915,-5.2949443311565e-05,-6.42427060037705e-06
-0.00404988551437172,-0.00312598962342677,-5.38409062185621e-05,-1.1944840262571e-05
-0.00405038619341768,-0.00313048381391071,-5.48443530853749e-05,-1.67895226811386e-05
-0.0040501000911057,-0.00313388127886541,-5.37207611506096e-05,-2.05193462816211e-05
-0.00404589200293374,-0.0031370403252268,-4.88257574249739e-05,-2.40317690373153e-05
-0.00403977656601528,-0.00314214248312369,-4.23255610239171e-05,-2.92579858048783e-05
-0.004035294296461,-0.00315047521295996,-3.8901121936219e-05,-3.757538835544e-05
-0.00403654599407589,-0.00315996427297379,-3.97677684251337e-05,-4.79854181706726e-05
-0.00403748774751948,-0.0031679036121311,-3.92098496524713e-05,-5.68667374539211e-05
-0.00402709269685106,-0.00317205209565473,-2.93584016586499e-05,-6.01370326426821e-05
-0.00400505089789932,-0.00316747445866313,-8.30736715141518e-06,-5.67969642561796e-05
-0.00397906327122827,-0.00315958280322449,1.82038027092297e-05,-5.0690579082873e-05
-0.00395647310951192,-0.0031571866963617,4.27329526989349e-05,-4.74067992893075e-05
-0.00393586182212006,-0.00315754432425167,6.1453496020956e-05,-4.82727505494876e-05
-0.00392320179481517,-0.00315533895226353,7.35932250659014e-05,-4.85372180336109e-05
-0.00391994738101646,-0.00314978379903935,7.87768617655992e-05,-4.2993338116049e-05
-0.00392137789257633,-0.00313916225070728,7.70265630956402e-05,-3.21261787502892e-05
-0.00392736219926847,-0.00312552470716981,6.99133319052605e-05,-2.04363722441142e-05
-0.00393830561270151,-0.00311369914494152,5.95446289606722e-05,-9.80170124117529e-06
-0.00395194315623898,-0.0031013609827376,4.66719676064349e-05,2.12184509852042e-06
-0.00396703505319566,-0.00308643597879624,3.11446709907491e-05,1.68829527554935e-05
-0.00398384356402418,-0.00306917447264042,1.40530413191438e-05,3.22924296670668e-05
-0.00399992489814311,-0.00305433291520672,-1.77377048244434e-06,4.5757120900454e-05
-0.00401272797660398,-0.00304271000878274,-1.3610076021751e-05,5.73607382090566e-05
-0.0040186526786478,-0.00303204077673201,-2.05349488723787e-05,6.75665345874995e-05
-0.0040215971482752,-0.00302288550274882,-2.32819993738992e-05,7.44007072582996e-05
-0.00402303958076475,-0.00302133578189229,-2.30551810952518e-05,7.55833314656636e-05
-0.00401911759490476,-0.00302433985616802,-2.07828325818661e-05,7.20093115021777e-05
-0.00401608967876969,-0.00302886980944096,-1.71757726808927e-05,6.67172430079421e-05
-0.00401376509748489,-0.00303316134412058,-1.29578580628258e-05,6.12636125188261e-05
-0.00400824570704971,-0.0030378701113385,-8.65211453735197e-06,5.50666750745566e-05
-0.00400350117704279,-0.00304564255748049,-4.29299554492125e-06,4.75829211145548e-05
-0.0040015580655073,-0.00305331963618515,-1.21409753296548e-07,3.92553270308323e-05
-0.00399993681907277,-0.00306041258933619,2.06438654178522e-06,3.06540501355045e-05
-0.00400052094462639,-0.00306798237967386,-6.72619441104561e-07,2.20547235798809e-05
-0.00401126170225511,-0.0030770542071494,-9.15953391828871e-06,1.35655696296043e-05
-0.00402327799935806,-0.00308510083467369,-1.94959511195958e-05,4.88377136324523e-06
-0.00402774834798267,-0.0030925871785037,-2.53100524440552e-05,-4.2730616645552e-06
-0.00402588868295483,-0.00310080069904332,-2.31969665936288e-05,-1.27782674209163e-05
-0.00402005934834834,-0.00310702342432877,-1.49602288695234e-05,-1.83703927364112e-05
-0.00400972390232825,-0.00310813207078767,-4.46698378296336e-06,-2.02366203558591e-05
-0.00399912619585551,-0.00310647506156415,5.87667305430056e-06,-1.99175893410406e-05
-0.0039909126753159,-0.00310535449417558,1.483505336641e-05,-1.86016389903129e-05
-0.00398685955922959,-0.00310264844314149,2.09748532709535e-05,-1.52350319200098e-05
-0.0039840104570395,-0.00309513825745215,2.40813087274554e-05,-8.79666259259288e-06
-0.00398042225721015,-0.00308679360668621,2.68196553305481e-05,-7.86878840344653e-07
-0.00397778773175405,-0.00307996291398781,3.20125746233867e-05,6.26639420456644e-06
-0.00397297167616914,-0.00307495612352825,3.80570807921203e-05,1.1203882015304e-05
-0.00397006296933073,-0.00307321566779707,3.97057396550815e-05,1.34101088768683e-05
-0.00397735857828609,-0.00307421702588898,3.4393813798935e-05,1.15405659010022e-05
-0.00398784899639183,-0.00308015364886246,2.54695657318916e-05,5.51135271591007e-06
-0.00399532341929218,-0.00308864135078438,1.75231516319318e-05,-1.79046042945515e-06
-0.00400323891659015,-0.00309427995051622,1.06305560416205e-05,-7.39381339853027e-06
-0.00401325249750927,-0.0030972005782843,1.99472181927633e-06,-1.15252032415655e-05
-0.0040235044970217,-0.00310204047572854,-7.67631405523908e-06,-1.54656381081209e-05
-0.00402882123165257,-0.00310553330812057,-1.28109867787612e-05,-1.78545730571832e-05
-0.00402628207363379,-0.00310385245703771,-8.9842808718171e-06,-1.65895409378878e-05
-0.00401612544155869,-0.00309977549909207,1.71729364128307e-06,-1.32386657681918e-05
-0.00400621914900655,-0.0030994536339911,1.2491309081741e-05,-1.15972242420977e-05
-0.00400078320507903,-0.00310075301532465,1.77841791474536e-05,-1.21623979469926e-05
-0.00400329852123848,-0.00309978742002174,1.68272133818424e-05,-1.18888268644284e-05
-0.0040072443489578,-0.00309780854569724,1.27245918902824e-05,-9.60016779700076e-06
-0.00401164317200441,-0.003096747582957,9.11029672723318e-06,-7.89204427363135e-06
-0.0040143849858275,-0.00309858340612551,6.72505999063818e-06,-9.0438827298013e-06
-0.00401867652050713,-0.00310189742457255,2.63355511146376e-06,-1.24696764709079e-05
-0.00402762913868601,-0.00310604590809619,-5.94959458972676e-06,-1.68649594532387e-05
-0.00403927588696932,-0.00311164874503903,-1.6714983787289e-05,-2.14412262263667e-05
-0.00404496217041982,-0.00311512965650139,-2.3429920354611e-05,-2.43794601165786e-05
-0.00404558205876243,-0.00311435479607313,-2.33494270607696e-05,-2.38637903202527e-05
-0.00404384160303125,-0.00311217326594432,-2.08161375529205e-05,-2.17080506608317e-05
-0.00404281640308001,-0.00311317462403623,-2.10053942975123e-05,-2.19265333435335e-05
-0.00404449725416286,-0.00311626214481963,-2.2652676252435e-05,-2.41669835237531e-05
-0.00404378199838293,-0.00311415214026881,-2.09122084941615e-05,-2.28952416488552e-05
-0.00403690362196586,-0.00310695189875078,-1.57393847871354e-05,-1.54659112019905e-05
-0.00403370881281548,-0.00309917945260879,-1.2274833071316e-05,-6.57975257449414e-06
-0.0040345671197514,-0.00309417266214923,-1.28919759077024e-05,-1.25907385675946e-06
-0.00403445983138441,-0.00308915395076,-1.43189494224569e-05,2.46949660243676e-06
-0.0040342214127911,-0.00308377761148081,-1.44138842541736e-05,9.13545156055571e-06
-0.00403716588241851,-0.00307648200252545,-1.67052792124863e-05,1.72599889436145e-05
-0.00404318595189964,-0.00307145137020656,-2.4668994979103e-05,2.10857429724964e-05
-0.00405257964447615,-0.0030736567421947,-3.50694196453057e-05,1.95153164015387e-05
-0.00405902886742526,-0.00307626742579147,-4.11195667096738e-05,1.75158957083563e-05
-0.00405761027679505,-0.00307531375141822,-4.02170629348994e-05,1.84502903378798e-05
-0.00404950404462242,-0.00307329911430473,-3.49371220010863e-05,2.02079110753133e-05
-0.00404269719378335,-0.0030736209794057,-2.81088818188417e-05,2.00888463838739e-05
-0.00403577113364763,-0.00307568330023785,-2.0798565534174e-05,1.89150564610628e-05
-0.00402690196197641,-0.0030759097979015,-1.41807781009377e-05,1.8230989568018e-05
-0.00401988053440336,-0.00307673234204843,-9.44940732116452e-06,1.706849966152e-05
-0.0040174367438219,-0.00308095235115006,-5.68892640415331e-06,1.40554361795602e-05
-0.00401046299996752,-0.00308444518354208,-7.10291860777935e-07,1.02597715391435e-05
-0.00400251173988055,-0.00308711547178718,5.81473345109969e-06,7.60253156559303e-06
-0.00399447703328592,-0.00308836716940207,1.20458497599256e-05,6.23303126097461e-06
-0.00399099612182356,-0.00309048909488255,1.60173447247257e-05,5.32920554150533e-06
-0.00398947024282636,-0.00309038180651556,1.56916070308166e-05,4.69964658533009e-06
-0.00399488234489455,-0.00309191960644243,8.44696491843576e-06,3.69510892745731e-06
-0.00400851988843202,-0.00309520978303014,-5.91540631645903e-06,3.15396747770631e-07
-0.0040242674365203,-0.00310270804778981,-2.23465485463141e-05,-6.29085655496515e-06
-0.00403471017090739,-0.00311008710325283,-3.4429357602381e-05,-1.37190376581228e-05
-0.00403970504043728,-0.00311514157743106,-4.0526202894692e-05,-1.90595334592092e-05
-0.00403995537996026,-0.00311985034464898,-4.19346871866139e-05,-2.2814180670337e-05
-0.00403256440356758,-0.00312511939556118,-3.57639382641609e-05,-2.75556731753456e-05
-0.00401275181846331,-0.00313018579066907,-1.61321420488189e-05,-3.31748147287077e-05
-0.00397911095494693,-0.00313421506489605,1.54003131961566e-05,-3.61827488396692e-05
-0.00394694828670909,-0.00313233155800888,4.65233648264295e-05,-3.40721642543444e-05
-0.00392754101321346,-0.00312653798619139,6.5756059985426e-05,-2.79543774854388e-05
-0.00391860031596424,-0.00311908740515038,7.37233886995977e-05,-1.99696296492657e-05
-0.0039118173069845,-0.00310965794978487,7.86358353069274e-05,-1.01747970048557e-05
-0.00390632175840865,-0.00309736747129962,8.37776807389845e-05,2.38195789766377e-06
-0.00390510582358276,-0.00308405179286312,8.49207371295754e-05,1.66281908322775e-05
-0.00390945696291071,-0.0030717493934482,7.85214168454819e-05,2.91024041458285e-05
-0.00392184280883329,-0.00306510943562445,6.64477987099085e-05,3.63631224118476e-05
-0.00393506311983246,-0.00306470412401582,5.17838368942735e-05,3.70898076396352e-05
-0.00395153784463035,-0.00306992549120936,3.49082910959317e-05,3.26325627374406e-05
-0.00397021794141638,-0.00307692307692308,1.61826302889609e-05,2.656817039065e-05
-0.00398571514998169,-0.00308032054187778,-4.7677962701745e-07,2.29288334927709e-05
-0.00399395251238063,-0.0030807973790644,-9.61413793603206e-06,2.31425145925666e-05
-0.00399409556353662,-0.00308103579765772,-9.17032851539817e-06,2.45257200863382e-05
-0.00398644232669129,-0.00308218020690562,-2.20756728837568e-06,2.2988673793747e-05
-0.0039772512899191,-0.0030880095415121,5.75629310122333e-06,1.75054776972535e-05
-0.00397281670408348,-0.00309624690391105,1.07795125170543e-05,1.09421423738775e-05
-0.00397028946699437,-0.003100633806028,1.27824664411657e-05,6.38766240577875e-06
-0.0039684059601072,-0.0031036855640224,1.42078257314749e-05,4.10512885408611e-06
-0.00396670126716502,-0.00310566443834689,1.59741414687264e-05,2.78866717089e-06
-0.00396685623925067,-0.00310636777319716,1.54568022224429e-05,2.35975748521142e-06
-0.00397202992272555,-0.0031059028569402,9.84646529465481e-06,3.89161840681701e-06
-0.00398181700598103,-0.00310294646638313,6.7148224556068e-07,7.22040587873201e-06
-0.00398974442420867,-0.00310031194092702,-7.55601237059036e-06,1.01385237387237e-05
-0.00399459624258257,-0.00310060996416867,-1.33641092484664e-05,1.02326133996553e-05
-0.0040023210050059,-0.00310544986161291,-2.02073179469852e-05,6.83576907644885e-06
-0.00401346707424325,-0.00311065930787678,-3.11044895514868e-05,1.33606975819731e-06
-0.0040254476085572,-0.00311573762391434,-4.378748439191e-05,-3.62758705498894e-06
-0.0040345671197514,-0.0031188370656274,-5.322201702203e-05,-5.60375806321507e-06
-0.00403982424973394,-0.00311808604705847,-5.73390243171504e-05,-4.28006310811408e-06
-0.00404009843111625,-0.00311583299135166,-5.79441896057658e-05,-2.26995566466628e-06
-0.00403888249629035,-0.0031165482471316,-5.69599173344048e-05,-2.9330040206843e-06
-0.00403625989176392,-0.00312199611198879,-5.4500911234802e-05,-7.0473863256242e-06
-0.00403351807794083,-0.00312747973963497,-5.07806951503227e-05,-1.24357576282432e-05
-0.00402995371997081,-0.00313111562318299,-4.73986614969517e-05,-1.69749497849806e-05
-0.00402752185031902,-0.00313614625550188,-4.53349128211712e-05,-2.07497879628998e-05
-0.00402550721320553,-0.00314046163204084,-4.27201253339035e-05,-2.47229743158523e-05
-0.0040182712088985,-0.00314375180862855,-3.58504691154178e-05,-2.85439258412804e-05
-0.00400633835830321,-0.00314588565503869,-2.25311524072021e-05,-3.0749511379163e-05
-0.00398756289407986,-0.00314667243639662,-4.50485489351148e-06,-3.04434459658042e-05
-0.00396908545309814,-0.00314339418073858,1.28859382072106e-05,-2.78862810607986e-05
-0.00396125340230783,-0.00313916225070728,2.36798101376909e-05,-2.41006799178577e-05
-0.00395876192800772,-0.00313732642753878,2.52411724203108e-05,-2.08727511907737e-05
-0.00396251702085239,-0.00313543099972194,2.00630727223049e-05,-2.04461012888742e-05
-0.00397123122043796,-0.00313879270188765,1.32991271584707e-05,-2.37419195178248e-05
-0.00397737049921575,-0.00314494390159511,8.18859094888299e-06,-2.88288284810035e-05
-0.00397936129446991,-0.00314687509220094,4.25620445925341e-06,-3.22334462138064e-05
-0.0039848091593271,-0.003146231361999,-1.14170137601834e-07,-3.19734754520442e-05
-0.00399059081021493,-0.00314404983187019,-4.4451622128617e-06,-2.85617403291847e-05
-0.00399132990785419,-0.0031374933205541,-6.16553213808161e-06,-2.31534245258772e-05
-0.00398871922425742,-0.00312932748373315,-3.26662031753072e-06,-1.60140640852041e-05
-0.00398323559661124,-0.00312151927480216,3.51834227644423e-06,-7.41656579750206e-06
-0.00397585654114822,-0.00311290044265392,1.06840089341591e-05,1.06632787376917e-06
-0.00397242331340452,-0.00310505647093394,1.39591478392636e-05,7.5504722503153e-06
-0.0039764168248425,-0.00310014504791171,1.15602493781054e-05,1.21003819446511e-05
-0.00398139977344273,-0.00309621114112205,6.43941672935536e-06,1.69400755094942e-05
-0.00398316407103324,-0.00308785456942645,4.51913219108613e-06,2.38527290741708e-05
-0.00397951626655556,-0.00307943839308252,9.48118265416359e-06,3.19051405933023e-05
-0.00397005104840106,-0.00307242888643914,1.94829316013755e-05,3.8450038600882e-05
-0.00396019243956759,-0.00306882876568012,2.95423359077561e-05,4.2203357001471e-05
-0.00395344519337685,-0.00306619424022402,3.62105264319585e-05,4.45964054187839e-05
-0.00395258688644093,-0.00306062716607017,3.88209118584147e-05,4.79684569629962e-05
-0.00395447039332809,-0.00305686015229584,3.74300411826811e-05,5.29679903849304e-05
-0.00395978712795896,-0.00305225867344491,3.19339703305786e-05,5.76365710036389e-05
-0.00396881127171584,-0.00304932612474716,2.32253742296814e-05,5.81134950899571e-05
-0.00398168587575471,-0.00305790919410641,1.30759516522282e-05,5.03629645909741e-05
-0.00399158024737717,-0.00307481307237226,2.33597676482774e-06,3.32011639974015e-05
-0.00400284552591118,-0.0030963661132077,-8.92289576839177e-06,1.0949877690404e-05
-0.00401498103231079,-0.00311507005185306,-1.88286857690735e-05,-8.40126179105065e-06
-0.004020178557645,-0.00312623996294975,-2.32471234351936e-05,-1.96904915640788e-05
-0.00401568436716106,-0.00313045997205138,-1.92936870659615e-05,-2.46225946646723e-05
-0.00400582575832759,-0.00313432235326304,-8.20193102974079e-06,-2.787152240344e-05
-0.00399326109846002,-0.00313582439040091,6.20657966608045e-06,-3.06894898753173e-05
-0.00397837185730766,-0.0031355144462296,2.05796699705963e-05,-3.11468958469994e-05
-0.00396752381131195,-0.00313483495323866,3.26991544377185e-05,-2.94103064465642e-05
-0.00396010899305993,-0.00313304681378882,4.10672917675318e-05,-2.83533028594329e-05
-0.00395565056536499,-0.00313197393011891,4.58661531431123e-05,-2.83433166287698e-05
-0.00395380282126682,-0.00312935132559248,4.91766884910789e-05,-2.58374171502768e-05
-0.00395122790045904,-0.00312329549332234,5.20477072123485e-05,-1.90934017006502e-05
-0.00395177626322366,-0.00311495084255641,5.19057598066004e-05,-1.13777949457321e-05
-0.00396032356979391,-0.00310834664752165,4.49636618538796e-05,-5.87096029260761e-06
-0.00397481942026731,-0.00310381669424872,3.10411014829476e-05,-1.14535550975395e-06
-0.00399148487993985,-0.00309863108984417,1.41898716038234e-05,4.72553121447534e-06
-0.00400850796750235,-0.00309348124822862,-1.31214639507348e-06,9.15234861772187e-06
-0.00402181172500919,-0.00309232491805106,-1.38024619167898e-05,9.18276353106212e-06
-0.004031586887335,-0.00309389848076692,-2.34157234257773e-05,8.21825276705347e-06
-0.00403931164975832,-0.00309028643907824,-3.09456102745772e-05,1.24096554797e-05
-0.00404806161213288,-0.00308102387672805,-3.81346918117113e-05,2.08741923475802e-05
-0.00405697846752277,-0.00307482499330193,-4.67345882805285e-05,2.56649619022062e-05
-0.00406559729967101,-0.00307955760237918,-5.57613222165431e-05,2.25690024343734e-05
-0.00407198691797178,-0.00308581609045363,-6.11506603459141e-05,1.63467220431634e-05
-0.00407179618309713,-0.00308738965316949,-5.97545461960629e-05,1.30417226617256e-05
-0.00406416678811114,-0.00308873671822171,-5.29595173643009e-05,1.21231003841303e-05
-0.00405666852335146,-0.00309206265759841,-4.51423921197268e-05,9.65228736443971e-06
-0.00405179286311822,-0.0030956389364981,-3.91517934666266e-05,5.27110184372565e-06
-0.00404717946333763,-0.00309840459218053,-3.4432266515837e-05,1.77071851851983e-06
-0.00404090905433351,-0.0031010152757773,-2.91194923784802e-05,5.53680416593731e-08
-0.0040356757662103,-0.00310186166178356,-2.27635042680583e-05,-1.39056222184423e-06
-0.00403000140368947,-0.00310342330356975,-1.69763078650104e-05,-3.25444505719127e-06
-0.00402658009687543,-0.00310584325229187,-1.41511983582314e-05,-5.13431694576679e-06
-0.00402810597587263,-0.00310750026151539,-1.54710509941463e-05,-7.77548947911653e-06
-0.00403239751055226,-0.00311206597757733,-1.95478961222218e-05,-1.23342126626185e-05
-0.00403493666857103,-0.00311802644241014,-2.31593742584234e-05,-1.7648632526795e-05
-0.00403710627777018,-0.00312058944228825,-2.39951310731197e-05,-2.11364110167984e-05
-0.00403435254301742,-0.00312171000967681,-2.26284797959121e-05,-2.25692149283941e-05
-0.00403206372452162,-0.00312356967470465,-2.10981739032026e-05,-2.43543845228107e-05
-0.00403161072919433,-0.00312696713965935,-1.9513056447624e-05,-2.74447151827925e-05
-0.00402661585966443,-0.00312788505124361,-1.5028538794788e-05,-2.91806863081408e-05
-0.00401462340442082,-0.00312463063744489,-5.06994544980567e-06,-2.64714222669525e-05
-0.00400137925156231,-0.00311846751680777,8.64696969106368e-06,-2.00024854230799e-05
-0.00399068617765225,-0.00311284083800559,2.04511657762411e-05,-1.40997234172209e-05
-0.00398250841990163,-0.00310972947536287,2.60293335918314e-05,-1.24209422057559e-05
-0.00398062491301447,-0.00311138648458639,2.71785987235612e-05,-1.40035987663617e-05
-0.00397918248052493,-0.00311125535436006,3.00395694000613e-05,-1.37839029547908e-05
-0.00396988415538574,-0.00310505647093394,3.78798308226004e-05,-7.59039452210576e-06
-0.00395978712795896,-0.0030926587040817,4.64545305220729e-05,3.41301305293061e-06
-0.00395860695592206,-0.00308176297436732,4.7837380953018e-05,1.42780195185863e-05
-0.00396748804852295,-0.0030747296258646,3.88417407792029e-05,2.22024833980031e-05
-0.00398048186185848,-0.00306632537045034,2.44830656827904e-05,2.8847745901747e-05
-0.00399144911715085,-0.0030591966545103,1.27190514062925e-05,3.57863344121737e-05
-0.00399733805640567,-0.00305516738028332,6.85586675431824e-06,4.02067687081735e-05
-0.00399912619585551,-0.00305672902206951,4.09828131772004e-06,3.79672244888332e-05
-0.00400158190736663,-0.00306401271009521,8.7196778394329e-07,2.9763094468725e-05
-0.00400434756304905,-0.00307284611897743,-2.14405261502545e-06,2.11077040572284e-05
-0.0040022852422169,-0.00307784098850733,-1.09113161226533e-06,1.60663878618643e-05
-0.00399458432165291,-0.0030788900303179,5.83345974537629e-06,1.36104831835775e-05
-0.00398501181513141,-0.00308218020690562,1.57072747991241e-05,1.07604402997585e-05
-0.0039753439411726,-0.00308552998814165,2.39696206926656e-05,6.94043059027136e-06
-0.00396930002983213,-0.00308803338337144,2.91640889372375e-05,3.84833051862435e-06
-0.00396544956955013,-0.00308893937402602,3.32827805235731e-05,2.53133927358268e-06
-0.00396047854187957,-0.003089225476338,3.75664416030289e-05,2.1430583585106e-06
-0.00395729565365885,-0.0030899526530476,3.9640049158495e-05,1.02613378992074e-06
-0.00396059775117622,-0.00309243220641805,3.59018847483861e-05,-2.04924192448994e-06
-0.00397079014604033,-0.00309790391313457,2.59458228212806e-05,-7.50136839151788e-06
-0.00398237728967531,-0.00310471076397364,1.33518681656244e-05,-1.49996411940633e-05
-0.0039927484984844,-0.0031134607263482,2.26872002615438e-06,-2.36834486974432e-05
-0.00400067591671204,-0.00312174577246581,-5.76182586132778e-06,-3.24218758762223e-05
-0.00400631451644388,-0.00312916059071783,-1.16293097371119e-05,-3.99875894059099e-05
-0.00401051068368618,-0.00313366670213143,-1.65466463248628e-05,-4.53010914322219e-05
-0.00401449227419449,-0.00313662309268851,-2.08759853146343e-05,-4.7656819235757e-05
-0.00401773476706354,-0.00313515681833963,-2.4527331033358e-05,-4.63898116662787e-05
-0.00402064347390195,-0.00312786120938427,-2.74827095171978e-05,-4.04603998284916e-05
-0.00402213359011016,-0.00311775226102783,-2.93607650750918e-05,-2.9483519983385e-05
-0.00402091765528426,-0.00310400742912337,-2.88502812393011e-05,-1.56550654017914e-05
-0.00401650691130799,-0.0030910612995065,-2.47232738633642e-05,-3.29685025873228e-06
-0.00401080870692782,-0.00308220404876495,-1.80563796864986e-05,4.87265523712769e-06
-0.00400311970729349,-0.00307759064898435,-1.23682319464605e-05,1.03089514862667e-05
-0.0040007951260087,-0.00307227391435348,-9.94833569028672e-06,1.62143619137995e-05
-0.00400084280972736,-0.00306361931941624,-8.61379265895072e-06,2.31594596631484e-05
-0.00399473929373856,-0.00305887478940933,-4.49444339314252e-06,2.85361985489131e-05
-0.00398827814985979,-0.00305866021267535,1.5967473268712e-06,2.99655510830974e-05
-0.00398770594523584,-0.00305964964983759,3.37812858822481e-06,2.7800435421706e-05
-0.00399439358677826,-0.00306323784966694,-3.60440849607983e-06,2.44182099999149e-05
-0.0040045740607127,-0.00306601542627903,-1.60828480603448e-05,2.23026880075662e-05
-0.00401690030198695,-0.00306547898444408,-2.66781464788383e-05,2.25813481160026e-05
-0.00402199053895417,-0.00306473988680481,-3.14752512052943e-05,2.41252658117271e-05
-0.00401954674837272,-0.00306378621243156,-3.12098782414544e-05,2.42862584217779e-05
-0.00401612544155869,-0.00306738633319058,-2.68016903336129e-05,2.18268170412174e-05
-0.00400697016757549,-0.003070151988873,-1.81254251017264e-05,1.88283901636325e-05
-0.00399678969364105,-0.00307143944927689,-7.31657178636513e-06,1.82412521443304e-05
-0.0039871337406119,-0.0030698420447017,9.33420791104484e-07,1.98556621037534e-05
-0.00398379588030552,-0.00306947249588206,4.09522862661043e-06,2.0422422448873e-05
-0.00398447537329646,-0.00307276267246977,4.14924126785246e-06,1.76467094455454e-05
-0.00398430848028114,-0.00307912844891122,4.00267220004091e-06,1.22337313033987e-05
-0.00398274683849495,-0.00308474320678372,4.39064483122184e-06,6.01633683474668e-06
-0.00398136401065373,-0.00309129971809982,5.94054494087637e-06,2.24349436972849e-07
-0.00397597575044487,-0.0030960919318254,1.12797122854662e-05,-3.99256565796563e-06
-0.00396589064394776,-0.00309857148519584,2.21153729969094e-05,-5.67722730643401e-06
-0.00395019077957814,-0.00309844035496952,3.56610171620312e-05,-5.90778129181653e-06
-0.00393935465451209,-0.00310076493625432,4.63518516308168e-05,-7.7758823556034e-06
-0.00393743538483592,-0.00310726184292208,5.00944062244237e-05,-1.30922112234265e-05
-0.00394110703117293,-0.00311491507976741,4.52705692321223e-05,-2.01448910624134e-05
-0.00395209812832464,-0.00311939734932168,3.18134483720347e-05,-2.5634655996229e-05
-0.00397344851335576,-0.00312287826078405,1.2544172791141e-05,-2.76409479330775e-05
-0.00399192595433747,-0.00312224645151177,-5.7665092781427e-06,-2.5846746122805e-05
-0.00400092625623502,-0.00311604756808564,-1.66049627264397e-05,-2.04345887606025e-05
-0.0040033581258868,-0.00310868043355229,-1.97465301541826e-05,-1.24203343259939e-05
-0.00400551581415628,-0.00310138482459693,-2.06958184292896e-05,-4.2768935611276e-06
-0.00400854373029135,-0.0030964018759967,-2.36769880414637e-05,1.38732882255085e-06
-0.00401016497672587,-0.00309385079704826,-2.73890429817545e-05,3.82489268066472e-06
-0.00401085639064648,-0.00309343356450996,-2.80634344821464e-05,4.27990734656957e-06
-0.00400825762797938,-0.00309454221096886,-2.42180842916566e-05,4.50441361991521e-06
-0.00400038981440007,-0.00309426802958655,-1.7444509374723e-05,5.3661564408324e-06
-0.00399246239617243,-0.00309239644362905,-1.07460265495685e-05,6.08591695220275e-06
-0.00398950600561535,-0.00309516209931148,-7.29279731362992e-06,4.61864763060272e-06
-0.00399113917297954,-0.00310113448507395,-8.5022153704268e-06,-7.31260930997771e-09
-0.00399266505197674,-0.00310516375930093,-1.13427339934348e-05,-5.36819331524133e-06
-0.00399041199626994,-0.00310751218244506,-9.24985209633715e-06,-7.26467865724123e-06
-0.00397970700143021,-0.00310658234993114,1.69146009457352e-06,-4.53389019113577e-06
-0.00396301769989834,-0.0031017424524869,1.79422889031114e-05,-7.08502494038954e-07
-0.0039486410587216,-0.0031009795129883,3.17495133361277e-05,2.2851061296437e-07
-0.00394235872878782,-0.00310380477331905,3.86664310928286e-05,-1.80629443568585e-06
-0.00393974804519105,-0.00310654658714214,3.99140155489688e-05,-4.21353556390153e-06
-0.00394231104506916,-0.00310760754988238,3.78962558321813e-05,-5.53301587354431e-06
-0.00394777083085601,-0.00310820359636567,3.24664382299178e-05,-5.99789535317407e-06
-0.0039566876862459,-0.00310798901963168,2.28489547851716e-05,-5.55546548629655e-06
-0.00396853709033353,-0.00310735721035941,1.09751340992574e-05,-3.87218308578282e-06
-0.00397881293170529,-0.00310423392678701,6.9231224981497e-07,-1.99675272720789e-06
-0.00398496413141275,-0.00310440081980233,-5.64762884125661e-06,-1.92685907616155e-06
-0.00398823046614113,-0.00310826320101399,-8.33356733556755e-06,-4.42745020808894e-06
-0.00398737215920521,-0.00311156529853137,-8.79257403602141e-06,-8.57968994584348e-06
-0.00398745560571287,-0.00311554688903969,-8.68573008008343e-06,-1.29729020953197e-05
-0.00399044775905894,-0.00311913508886904,-1.00663441746055e-05,-1.59190254059204e-05
-0.00399303460079638,-0.00311923045630637,-1.4276153863738e-05,-1.55051817888967e-05
-0.00399853014937223,-0.00311468858210376,-2.01516657253212e-05,-1.16885663378133e-05
-0.00400468134907969,-0.00311043281021314,-2.49797433343893e-05,-7.76995501642955e-06
-0.00400761389777743,-0.00311069507066578,-2.78704536898373e-05,-7.26289178779781e-06
-0.00400967621860958,-0.00311299581009125,-3.04733385070527e-05,-9.4040065275956e-06
-0.00401196503710538,-0.00311300773102091,-3.34299042894571e-05,-1.02006875262144e-05
-0.00401418233002319,-0.00311033744277581,-3.42221423275871e-05,-7.80627452792569e-06
-0.00401138091155177,-0.00310751218244506,-3.06084463775755e-05,-4.00189949062752e-06
-0.00400331044216814,-0.0031036855640224,-2.4605732956914e-05,-1.63218308668047e-07
-0.00399967455862013,-0.00309721249921396,-2.01144728066504e-05,4.75732807898462e-06
-0.00399817252148226,-0.00309178847621611,-1.72300507179409e-05,1.09651291083599e-05
-0.00399326109846002,-0.00308793801593411,-1.23524135335676e-05,1.5877610463668e-05
-0.00398397469425051,-0.00308458823469807,-4.46567564371948e-06,1.76873864309433e-05
-0.00397800230848803,-0.00308371800683248,2.282680332066e-06,1.83037500366306e-05
-0.00397821688522201,-0.00308296698826355,4.27259884786252e-06,2.01998083807464e-05
-0.0039768340573808,-0.00308059472326009,3.89157084727772e-06,2.24040844186041e-05
-0.00397424721564336,-0.00307948607680118,6.44716861079488e-06,2.24104194725855e-05
-0.00396864437870052,-0.00308160800228167,1.33378498532743e-05,2.04160881915912e-05
-0.00396094345813653,-0.00308485049515071,2.14915729079079e-05,1.8637502266333e-05
-0.00395336174686919,-0.00308434981610476,2.87118192508695e-05,1.76185772885258e-05
-0.00394572043095353,-0.00308545846256366,3.59976212062184e-05,1.63961400970523e-05
-0.00393904471034078,-0.00308711547178718,4.39839288350046e-05,1.54550331028972e-05
-0.00393298887807064,-0.00308685321133454,5.00163834887528e-05,1.59250566381558e-05
-0.003932726617618,-0.00308597106253928,5.0425840908164e-05,1.59842563801382e-05
-0.00393857979408382,-0.00308986920653994,4.45204417069606e-05,1.18193672004604e-05
-0.00394755625412203,-0.00310006160140405,3.552590237354e-05,2.99575832385307e-06
-0.00395572209094298,-0.00310888308935661,2.83485754278226e-05,-6.40037972844161e-06
-0.00395853543034407,-0.00311453361001811,2.61685638817369e-05,-1.3104496727041e-05
-0.00395511412353004,-0.00312067288879591,2.76374166543889e-05,-1.78976955045831e-05
-0.00395612740255161,-0.00312445182349991,2.75231341997386e-05,-2.17920267648803e-05
-0.00396411442542758,-0.00312477368860088,2.20229280902258e-05,-2.23804291222134e-05
-0.00397024178327571,-0.0031192542981657,1.34088797161862e-05,-1.71940331743092e-05
-0.00397601151323387,-0.0031112076706414,7.18983344721458e-06,-8.7113966155523e-06
-0.00398020768047617,-0.00310614127553351,4.84045862614074e-06,-2.49488786592437e-06
-0.0039829375733696,-0.00310282725708647,2.66097793579143e-06,-9.0725282438283e-07
-0.00398486876397543,-0.0031036855640224,-1.43146050012652e-06,-1.50116630670888e-06
-0.00398763441965785,-0.0031055213871909,-4.09532270749584e-06,-1.38163214270406e-06
-0.00398733639641621,-0.00310308951753911,-2.14290514539277e-06,-4.13627652997261e-07
-0.00398355746171221,-0.00310214776409553,1.31514003010166e-06,2.31085942362655e-07
-0.00398294949429926,-0.00310320872683577,-1.8969981912327e-07,2.30033996494691e-07
-0.00399298691707771,-0.00310417432213869,-9.39263400304482e-06,-1.38517336621809e-07
-0.00400871062330667,-0.00310342330356975,-2.41816385534456e-05,-6.01166297181686e-07
-0.00402445817139495,-0.00310319680590611,-4.11646856937617e-05,-2.26644753161868e-07
-0.0040387990497827,-0.00310219544781419,-5.639167977061e-05,2.37638586873781e-06
-0.00404722714705629,-0.00309669989923834,-6.46998773003441e-05,6.91502646204632e-06
-0.00404678607265866,-0.00309281367616735,-6.3768498308377e-05,1.03568840470522e-05
-0.00404037261249856,-0.00309512633652248,-5.84475734973804e-05,9.39616572219764e-06
-0.00403677249173954,-0.00310012120605237,-5.58899943555117e-05,3.94286432013174e-06
-0.00403736853822282,-0.00310652274528281,-5.6012652518545e-05,-2.56355202153833e-06
-0.00403242135241159,-0.00311083812182177,-5.19878944547414e-05,-6.4449805122902e-06
-0.00402153754362688,-0.00311156529853137,-4.11741902824027e-05,-7.16905894528734e-06
-0.00400921130235263,-0.00311168450782803,-2.97937526890395e-05,-7.46841425816321e-06
-0.00400240445151356,-0.00311508197278273,-2.42183773592761e-05,-1.01989942263317e-05
-0.00400168919573362,-0.00311987418650831,-2.29955027717361e-05,-1.52484646140137e-05
-0.00399976992605745,-0.00312384385608696,-2.13383064446515e-05,-1.98480522973091e-05
-0.00399481081931655,-0.00312707442802634,-1.87106809909732e-05,-2.16972955168317e-05
-0.0039928200240624,-0.00312579888855212,-1.66766067658747e-05,-2.08148298993812e-05
-0.00398882651262441,-0.00312198419105912,-1.27138312274495e-05,-1.81649954439395e-05
-0.00397818112243301,-0.00311933774467336,-2.58199988012484e-06,-1.40275256821239e-05
-0.00396109843022218,-0.00311397332632383,1.22795787796172e-05,-8.78943488351068e-06
-0.00394790196108234,-0.00310812014985801,2.53410872730491e-05,-3.82364499256512e-06
-0.0039406659567753,-0.00310407895470136,3.28396911329725e-05,2.77395526468941e-07
-0.00393660091975933,-0.0031002165734897,3.62173995901744e-05,5.20042845214202e-06
-0.00393317961294529,-0.00309236068084006,3.68303760718158e-05,1.22463727959432e-05
-0.0039369585476493,-0.00308481473236172,3.37356495956542e-05,1.88378299321515e-05
-0.00394274019853712,-0.00308444518354208,2.8287841694992e-05,2.05864692190306e-05
-0.00394313358921609,-0.00308753270432548,2.60999844119771e-05,1.70055110049445e-05
-0.00393626713372869,-0.00309120435066249,3.13737805999481e-05,1.23426766030107e-05
-0.00392587208306027,-0.00309383887611859,4.18538278761897e-05,1.01400864638592e-05
-0.00391730093463069,-0.00309425610865689,5.14065667728275e-05,9.82030903795844e-06
-0.00391103052562657,-0.00309398192727458,5.52935280585729e-05,9.60324499684762e-06
-0.00391273521856875,-0.00309317130405732,5.16744368943495e-05,9.59162414094881e-06
-0.00392531179936598,-0.00309336203893197,4.14244438607596e-05,1.0059984708749e-05
-0.00393594526862772,-0.00309311169940899,2.92866060273981e-05,9.61776407653233e-06
-0.00394156002650023,-0.00309464949933585,2.24500979601398e-05,7.77098904182444e-06
-0.0039388658963958,-0.00309486407606984,2.40434133293624e-05,7.0559338842652e-06
-0.00393550419423009,-0.00309213418317641,2.8702664198023e-05,9.66477084907298e-06
-0.00393637442209568,-0.00308777112291879,2.74941913928277e-05,1.37374532687485e-05
-0.00394427799846399,-0.00308488625793971,1.71284229886752e-05,1.60897133226265e-05
-0.00395972752331063,-0.00308321732778652,2.32822678572542e-06,1.69651771960771e-05
-0.00397326969941078,-0.00308181065808598,-1.04069107666e-05,1.84545396197457e-05
-0.0039810302246231,-0.00308053511861176,-1.90608248822624e-05,1.94361275941903e-05
-0.0039866807452846,-0.00308212060225729,-2.60440642592094e-05,1.64452238644284e-05
-0.00399532341929218,-0.00308933276470499,-3.40085252553665e-05,9.52757605689914e-06
-0.00400465750722036,-0.00309519786210047,-4.27331100026179e-05,2.99401234022804e-06
-0.00401085639064648,-0.00309785622941591,-4.94403079973202e-05,-5.52755916653261e-07
-0.00401183390687906,-0.00310060996416867,-5.16645502593816e-05,-3.28829765044651e-06
-0.00401089215343548,-0.00310419816399802,-4.97752389654212e-05,-8.02786670082739e-06
-0.00400871062330667,-0.00310992021023752,-4.62741798565086e-05,-1.43148711878355e-05
-0.0040033581258868,-0.00311592835878899,-4.26499127720476e-05,-2.01335574770393e-05
-0.0039988520144732,-0.00311894435399439,-3.80923620753908e-05,-2.45326216600333e-05
-0.00399391674959163,-0.00312062520507724,-3.15914668627418e-05,-2.69682953753276e-05
-0.00398566746626302,-0.00312049407485092,-2.33786468313077e-05,-2.70012422279798e-05
-0.00397487902491564,-0.00311979074000065,-1.31110553336527e-05,-2.64549432556806e-05
-0.00396087193255853,-0.00312049407485092,1.03667144562917e-06,-2.88446729839827e-05
-0.00394505285889225,-0.00312545318159182,1.86577705818852e-05,-3.43719743742663e-05
-0.0039293291526633,-0.0031298996883571,3.38076929851592e-05,-3.83727765465475e-05
-0.00392432236220374,-0.00312782544659528,3.91931222396167e-05,-3.74094970240058e-05
-0.00392918610150731,-0.00312309283751803,3.44287982972552e-05,-3.40178657000841e-05
-0.00393767380342923,-0.0031207801771629,2.74990883612554e-05,-3.20804908097525e-05
-0.00393881821267713,-0.0031200172376643,2.67970879997073e-05,-3.03138715663291e-05
-0.00393134378977679,-0.00311199445199933,3.32846373465057e-05,-2.48823321556393e-05
-0.00392525219471766,-0.00310343522449942,4.09440227127479e-05,-1.66351964496422e-05
-0.00392516874821,-0.00309817809451688,4.27756955941712e-05,-1.04232924204868e-05
-0.00393124842233946,-0.0030933858807913,3.55686956879797e-05,-7.56182110071832e-06
-0.00394581579839085,-0.00308983344375094,2.1490044406436e-05,-4.24652184954755e-06
-0.0039623382069074,-0.00308401603007412,7.11386991419422e-06,1.64606715087155e-06
-0.00397042059722069,-0.00307745951875803,-9.08221426686896e-07,7.1585014164533e-06
-0.0039711477739303,-0.00307463425842728,-1.69272555350058e-06,9.68045276041339e-06
-0.00397118353671929,-0.00307328719337506,-8.81648381574902e-07,1.14170395497318e-05
-0.00397582077835922,-0.00306798237967386,-3.87444886406005e-06,1.5338260533174e-05
-0.00398159050831738,-0.0030630113520033,-9.69063271215358e-06,1.99599677280735e-05
-0.00398601317322333,-0.00306223649157503,-1.38707687186599e-05,2.19066070551188e-05
-0.00398902916842873,-0.00306124705441279,-1.58381393269666e-05,2.16483280242104e-05
-0.00399380946122464,-0.00305910128707297,-1.93719869798856e-05,2.28083236840504e-05
-0.0040000321865101,-0.0030565621290542,-2.56671710227296e-05,2.66055972430582e-05
-0.004004919767673,-0.00305269974784253,-3.01595772573892e-05,3.06134221227705e-05
-0.00400424027468206,-0.00304865855268589,-2.82358502444156e-05,3.31244030939171e-05
-0.00399776720987363,-0.0030466796783614,-2.10178153431204e-05,3.54447214120519e-05
-0.0039893152707407,-0.00304489153891155,-1.2848357330569e-05,3.87682206727382e-05
-0.00398312830824425,-0.00304121989257454,-5.32755877376296e-06,4.13285899325523e-05
-0.00397517704815728,-0.0030416848088315,2.86469979706495e-06,4.05326639789071e-05
-0.00396727347178897,-0.00304657238999441,1.1353779324038e-05,3.66225518412921e-05
-0.0039624097324854,-0.00305179375718795,1.68070539621956e-05,3.23591534371327e-05
-0.00396297001617968,-0.00305352229198946,1.67504330217218e-05,2.94044435401822e-05
-0.00396740460201529,-0.00305711049181881,1.23906694605838e-05,2.65326975420894e-05
-0.00397356772265242,-0.00306321400780761,7.0902851855767e-06,2.17205343376736e-05
-0.00397796654569903,-0.00306999701678735,3.49007753751509e-06,1.48305088508936e-05
-0.00397871756426797,-0.00307731646760204,2.02511256429337e-06,7.32118299843382e-06
-0.00398128056414607,-0.00308599490439861,5.19086851399588e-07,-6.71071151073389e-08
-0.00398696684759658,-0.00309466142026552,-4.58144960167594e-06,-7.93522420135896e-06
-0.00399675393085205,-0.00310263652221182,-1.43803579584787e-05,-1.63053972759446e-05
-0.00400712513966114,-0.00311111230320408,-2.47312564490507e-05,-2.34874420305121e-05
-0.00401260876730733,-0.00311615485645263,-2.95363586670998e-05,-2.78964546899946e-05
-0.00401046299996752,-0.00311872977726041,-2.72838646551442e-05,-2.99976706759765e-05
-0.00400548005136729,-0.00312054175856958,-2.18750844015436e-05,-3.10655405063183e-05
-0.00399988913535411,-0.00312114972598253,-1.64720943835677e-05,-3.08883590859784e-05
-0.00399361872634999,-0.00311988610743797,-1.00055181900488e-05,-2.86986113279903e-05
-0.00398563170347403,-0.0031173469494192,-1.82240192417509e-06,-2.59233428747604e-05
-0.00398098254090443,-0.00311814565170679,3.72854990209642e-06,-2.53285386306056e-05
-0.00398203158271501,-0.00312021989346861,1.70097838663768e-06,-2.68055938813443e-05
-0.00398894572192107,-0.00312049407485092,-5.59968480307553e-06,-2.65737787982175e-05
-0.00399463200537157,-0.00311707276803689,-9.5068051010901e-06,-2.19969496442847e-05
-0.00398954176840435,-0.00311085004275143,-4.51385701749459e-06,-1.50320592881014e-05
-0.00397659563878749,-0.00310578364764354,6.07072651931627e-06,-9.0368697956443e-06
-0.00396937155541012,-0.00310119408972228,1.49168373268597e-05,-4.1188640158826e-06
-0.00396757149503061,-0.00309647340157469,1.84215337959272e-05,1.78801179560131e-06
-0.00396509194166016,-0.00309079903905386,1.82011752476974e-05,8.5748237006775e-06
-0.00396587872301809,-0.00308570880208664,1.72450996451935e-05,1.37608502701543e-05
-0.00396797680663924,-0.00308401603007412,1.70821776990344e-05,1.62937832608945e-05
-0.00396701121133633,-0.00308408755565211,1.78329692529319e-05,1.76032093532593e-05
-0.00396384024404527,-0.00308338422080184,1.87920091398432e-05,1.84949102809167e-05
-0.00396478199748886,-0.00308485049515071,1.88775820808313e-05,1.77082089131028e-05
-0.00396677279274301,-0.00308871287636238,1.79149156771354e-05,1.46302209825373e-05
-0.00396599793231475,-0.00309273022965969,1.74264339568279e-05,1.12537323141562e-05
-0.00396409058356825,-0.00309509057373348,1.87112336034977e-05,9.8695193230517e-06
-0.00396349453708497,-0.00309447068539087,1.99412308218106e-05,1.01301810254504e-05
-0.00396678471367268,-0.00309621114112205,1.67437748679139e-05,9.7594533990319e-06
-0.00397613072253053,-0.00309904832238247,6.65969668601726e-06,7.27415699811951e-06
-0.0039905312055666,-0.0031035782756554,-7.83114753943489e-06,2.98998651388093e-06
-0.00400395417237009,-0.00310878772191928,-2.15382782023026e-05,-1.69052639592503e-06
-0.00401341939052459,-0.0031124236054673,-3.08517545341069e-05,-4.87355166334663e-06
-0.00401737713917358,-0.0031128050752166,-3.4733410565595e-05,-4.98306397509445e-06
-0.00401427769746051,-0.00311061162415812,-3.28508832254775e-05,-2.39233211587461e-06
-0.00400726819081713,-0.00310854930332597,-2.55945291409593e-05,1.50649134850368e-07
-0.0039985063075129,-0.00310833472659199,-1.63425158436272e-05,-9.12589933793816e-08
-0.00399194979619681,-0.00311230439617064,-1.07665955566429e-05,-3.26114096951369e-06
-0.0039923670287351,-0.00311714429361488,-1.16755357152313e-05,-7.62383652912046e-06
-0.00399715924246068,-0.00312126893527919,-1.59485528022476e-05,-1.22948682258265e-05
-0.00399925732608183,-0.00312652606526172,-1.86254563728619e-05,-1.76841306308679e-05
-0.00399900698655885,-0.00313289184170317,-1.88155241320373e-05,-2.31621076604227e-05
-0.00399910235399618,-0.00313628930665787,-1.90083979979308e-05,-2.61453692130814e-05
-0.00399930500980049,-0.00313328523238213,-1.93017725130388e-05,-2.48295912894047e-05
-0.00399466776816057,-0.00313001889765375,-1.56198238564453e-05,-2.09627721107687e-05
-0.00398398661518017,-0.00312887448840585,-4.42243279800323e-06,-1.82764373667459e-05
-0.00396569990907311,-0.00312720555825267,1.32115781924495e-05,-1.81195877871297e-05
-0.00394542240771189,-0.00312603730714543,3.29953462364591e-05,-1.81202084869922e-05
-0.00392719530625315,-0.00312553662809948,5.07001321901737e-05,-1.57835038389478e-05
-0.00391515516729088,-0.0031218888236218,6.31638373724094e-05,-1.19083045866834e-05
-0.0039091827815284,-0.00311634559132728,6.85393991246417e-05,-8.85409748336764e-06
-0.00390900396758342,-0.00311466474024443,6.73083884052886e-05,-6.42740200384024e-06
-0.00391556047889951,-0.00311176795433569,6.16242878644244e-05,-2.04144245298106e-06
-0.0039236428692128,-0.00310317296404677,5.26441157568272e-05,4.754000061262e-06
-0.00393588566397939,-0.00309656876901202,4.03322771929408e-05,1.05507294134509e-05
-0.00394828343083164,-0.00309619922019239,2.66592170211728e-05,1.23394457025673e-05
-0.0039590122675307,-0.0030964376387857,1.58793940530595e-05,1.13355714288959e-05
-0.00396568798814344,-0.003096747582957,9.1871350660314e-06,1.04504712735235e-05
-0.00397316241104379,-0.00309728402479196,1.60184648817968e-06,9.75552461957754e-06
-0.00398465418724145,-0.00309970397351408,-1.24158297505299e-05,7.38502038126157e-06
-0.00400440716769738,-0.00310314912218744,-3.14761536111962e-05,3.91356020584448e-06
-0.0040227415575231,-0.00310425776864635,-4.8450253459445e-05,2.37695499125525e-06
-0.00402900004559756,-0.00310181397806489,-5.81315980959058e-05,3.8709205843099e-06
-0.00403118157572636,-0.00310071725253566,-6.05481305792206e-05,6.36108204027872e-06
-0.00402941727813585,-0.00309734362944029,-5.76431814622848e-05,8.45315053655844e-06
-0.00402168059478286,-0.00309436339702388,-5.09085043782218e-05,1.11499926605526e-05
-0.0040117862231604,-0.00309129971809982,-4.29275623011199e-05,1.47657040913916e-05
-0.00400621914900655,-0.00308825988103508,-3.73432577788464e-05,1.732263974471e-05
-0.00400389456772176,-0.00308700818342019,-3.51925096742833e-05,1.7856260383776e-05
-0.00400216603292024,-0.00308742541595849,-3.34526287478528e-05,1.84297485212148e-05
-0.00399512076348786,-0.00308444518354208,-2.87697155601711e-05,2.05562070766492e-05
-0.00398669266621427,-0.00308204907667929,-2.07846301889195e-05,2.2199374730033e-05
-0.00397772812710572,-0.00308462399748707,-1.06062979303024e-05,2.10327220493447e-05
-0.00396385216497494,-0.00308643597879624,1.51451265547341e-06,1.82928020749401e-05
-0.00394910597497856,-0.00308765191362214,1.45047976287928e-05,1.60778757462092e-05
-0.00394042753818199,-0.00309232491805106,2.38993094561697e-05,1.27859580636068e-05
-0.00393950962659774,-0.00309904832238247,2.41112817004152e-05,5.34146285017583e-06
-0.00394876026801826,-0.00310885924749728,1.41382580246919e-05,-4.83755959728198e-06
-0.00396163487205713,-0.00311604756808564,-1.56262891139713e-07,-1.21215002760482e-05
-0.00397123122043796,-0.00311707276803689,-1.00582638337709e-05,-1.30692129717483e-05
-0.00397177958320258,-0.0031134964891372,-1.02579153419667e-05,-9.26405928475582e-06
-0.00396218323482175,-0.00310711879176609,-1.96995113068184e-06,-3.70024151205716e-06
-0.00394972586332118,-0.00310070533160599,8.77892941870345e-06,2.24152400994132e-06
-0.00394376539848837,-0.00309623498298138,1.58504378846979e-05,7.77272962100662e-06
-0.00394128584511792,-0.00309135932274814,1.73578479537465e-05,1.20979374679854e-05
-0.0039407732451423,-0.00308606642997661,1.64690868069603e-05,1.58858661793445e-05
-0.00393970036147239,-0.00308259743944391,1.74882443358118e-05,2.04582504899193e-05
-0.00393707775694595,-0.00307862776986526,2.01457379984782e-05,2.45673988279969e-05
-0.00393749498948425,-0.00307668465832976,1.81464369912616e-05,2.47995581524274e-05
-0.00395034575166379,-0.00308189410459364,5.37223732682997e-06,2.01090262035108e-05
-0.00397120737857863,-0.00308868903450304,-1.54235452679203e-05,1.30677461564836e-05
-0.00398625159181664,-0.0030956746992871,-3.20247362888712e-05,5.80302988196401e-06
-0.00398732447548654,-0.00310261268035249,-3.34284954640225e-05,-1.8581203077807e-06
-0.00397571348999223,-0.00310940761026189,-2.05205703546174e-05,-9.00839108124563e-06
-0.00395649695137125,-0.0031126977868496,-3.56675914983716e-06,-1.25350513715199e-05
-0.00394253754273281,-0.00311179179619502,1.01547375088057e-05,-1.17788979763327e-05
-0.00393157028744044,-0.00310962218699587,2.20612041963669e-05,-1.05972180293623e-05
-0.00391780161367664,-0.00310999173581551,3.49755870917332e-05,-1.17922404689865e-05
-0.00390663170257996,-0.00311180371712468,4.55852659458997e-05,-1.30396171229354e-05
-0.00390323423762526,-0.00310959834513654,4.83086451319441e-05,-1.20080121529758e-05
-0.00390942120012171,-0.0031085731451853,4.34881391113642e-05,-1.19817980022317e-05
-0.00391509556264255,-0.00311381835423817,3.68472472339848e-05,-1.73962738801051e-05
-0.00391881489269822,-0.00312224645151177,3.21890297785222e-05,-2.62706146558267e-05
-0.0039228084041362,-0.00312783736752494,2.90321210029453e-05,-3.27535488023841e-05
-0.00392574095283395,-0.00312991160928676,2.64233011820412e-05,-3.58492582529148e-05
-0.00392730259462014,-0.00313299913007016,2.41269553353603e-05,-3.96400513615375e-05
-0.00393086695259016,-0.00313903112048096,2.00148607017643e-05,-4.51621095971811e-05
-0.00394101166373561,-0.0031397821390499,1.1369508074792e-05,-4.84161295361634e-05
-0.00395180010508299,-0.00313876886002832,1.07018041400371e-07,-4.76356833592417e-05
-0.00395883345358571,-0.00313757676706176,-7.74673726463702e-06,-4.64375159952194e-05
-0.00396194481622844,-0.00313709992987513,-9.81091539514185e-06,-4.71230299518603e-05
-0.00396364950917062,-0.00313411969745873,-1.07763407034646e-05,-4.61199239906472e-05
-0.0039673330764373,-0.0031283738093599,-1.56844647216943e-05,-3.97414523084222e-05
-0.00397533202024293,-0.00311822909821445,-2.3196952343297e-05,-3.02624760203312e-05
-0.00398227000130832,-0.00310771483824938,-2.85688557398079e-05,-2.19966139386402e-05
-0.00398371243379786,-0.00310022849441937,-3.05273393013496e-05,-1.45573606814207e-05
-0.00398342633148589,-0.00309027451814857,-3.1481634273573e-05,-4.84805266155269e-06
-0.00398715758247123,-0.00307809132803031,-3.24558838620718e-05,6.23978446661998e-06
-0.00398616814530898,-0.00306839961221216,-3.17098556983201e-05,1.4277741614597e-05
-0.00398206734550401,-0.00306444186356317,-2.85023860917121e-05,1.81699472983868e-05
-0.00397979044793787,-0.00306060332421084,-2.53233104729239e-05,2.21443983495856e-05
-0.00398105406648243,-0.00305093545025202,-2.5199854776748e-05,2.99861500762553e-05
-0.00398358130357154,-0.00303918141360172,-2.78524006886827e-05,4.04425794546613e-05
-0.00398476147560844,-0.0030311109442181,-2.93353767751097e-05,4.94490448035704e-05
-0.00398160242924705,-0.00302541273983793,-2.5715571655721e-05,5.45411369232011e-05
-0.00397523665280561,-0.00302172917257125,-1.74124844885406e-05,5.5924272882067e-05
-0.00396704697412532,-0.00302307623762347,-9.35146400951439e-06,5.49488341578307e-05
-0.00396188521158011,-0.0030257703677279,-5.61948195515115e-06,5.27485045636751e-05
-0.003963136909195,-0.00302768963740406,-4.56365135616476e-06,4.95075691953175e-05
-0.00396121763951883,-0.00303148049303773,-1.29414709291405e-06,4.45024748633373e-05
-0.00395317101199454,-0.00303940791126537,5.28384847031031e-06,3.75129126159794e-05
-0.00394774698899668,-0.00304623860396377,1.10231718840217e-05,3.01079554095091e-05
-0.00394808077502732,-0.00305154341766497,1.2698602098504e-05,2.45052093472176e-05
-0.00394924902613455,-0.00305393952452776,1.21229602301503e-05,2.12171215225548e-05
-0.00394758009598136,-0.00305681246857717,1.24273889312396e-05,1.88633350780854e-05
-0.00394755625412203,-0.00305985230564191,1.35994553359287e-05,1.61089492595113e-05
-0.00394816422153498,-0.00306268948690233,1.43985688955453e-05,1.26253040422631e-05
-0.00394694828670909,-0.00306670684019964,1.59227065833111e-05,8.47583480085861e-06
-0.00394161963114855,-0.00307117718882425,1.98977340254523e-05,4.0732971290729e-06
-0.00393832945456084,-0.00307606476998715,2.52035543545103e-05,6.16663496787898e-07
-0.00393458628264584,-0.00307642239787712,2.92891053541521e-05,-1.09390610307039e-06
-0.0039323809106577,-0.00307799596059298,3.16560507398159e-05,-2.37722745271009e-06
-0.00393067621771551,-0.00308223981155394,3.29843729818272e-05,-5.52898905244026e-06
-0.00393222593857204,-0.00308794993686378,3.23169845071317e-05,-1.07314177719258e-05
-0.00393722080810194,-0.00309243220641805,2.84584742401023e-05,-1.58550852342392e-05
-0.00394179844509354,-0.00309671182016801,2.29541941129831e-05,-1.96806550470588e-05
-0.00394703173321675,-0.0031020881594472,1.81078749612043e-05,-2.32643491068533e-05
-0.00395308756548688,-0.00310558099183923,1.29430746386246e-05,-2.72551535943067e-05
-0.0039611937976595,-0.00310845393588864,4.90774728299873e-06,-2.99753960021357e-05
-0.00397088551347765,-0.00310994405209685,-5.00058994503898e-06,-2.97533526086218e-05
-0.0039791228758766,-0.00310745257779673,-1.28597429921504e-05,-2.75661708478532e-05
-0.00398381972216485,-0.00310647506156415,-1.74475253192722e-05,-2.55044296068832e-05
-0.00398815894056314,-0.00310565251741722,-2.10579894080628e-05,-2.37368977300653e-05
-0.0039904954427776,-0.00310252923384483,-2.43593876531701e-05,-2.09436936805332e-05
-0.00399153256365851,-0.00310014504791171,-2.48374615078109e-05,-1.69605578304902e-05
-0.00398873114518709,-0.00309710521084697,-2.14449096604414e-05,-1.28845492815159e-05
-0.00398319983382224,-0.00309287328081568,-1.65173700795331e-05,-8.89219097720718e-06
-0.00397770428524639,-0.00308909434611168,-1.1425350161188e-05,-4.08266398061734e-06
-0.00397218489481121,-0.00308501738816603,-4.58939790479453e-06,1.32586911895006e-06
-0.00396276736037537,-0.00308145303019601,3.78467858990528e-06,5.53150417271193e-06
-0.00395724796994018,-0.00307958144423851,9.09336195729774e-06,7.38316465345748e-06
-0.00395922684426468,-0.00308089274650173,7.89384016597065e-06,7.53907154413539e-06
-0.0039635183789443,-0.00308246630921759,2.99053802686723e-06,6.90665692705738e-06
-0.00396699929040666,-0.00308403987193345,-6.15433526265562e-07,5.50416074208393e-06
-0.00396860861591152,-0.00308703202527952,-2.29685921079022e-06,3.61513911093083e-06
-0.00397088551347765,-0.00308852214148773,-4.53434014323529e-06,2.51750437164935e-06
-0.00397366309008974,-0.00308949965772031,-7.34340088651308e-06,2.85284733830692e-06
-0.00397423529471369,-0.00308911818797101,-8.51651768956588e-06,3.37497854623995e-06
-0.0039741637691357,-0.00309052485767155,-8.42047820637744e-06,2.5999006146603e-06
-0.00397646450856116,-0.00309349316915829,-1.01390801924734e-05,9.21228056471374e-07
-0.00397992157816419,-0.00309422034586789,-1.47572612704592e-05,-1.1682925543025e-07
-0.00398539328488071,-0.00309543628069379,-2.00489169763249e-05,2.896345040579e-08
-0.00398999476373164,-0.0030948759969995,-2.40084175542695e-05,7.29146349293509e-07
-0.00399128222413553,-0.00309475678770285,-2.64939416030305e-05,1.5604334549863e-06
-0.00399265313104708,-0.00309402961099324,-2.73497616814835e-05,2.4020500247536e-06
-0.0039916398520255,-0.00309489983885883,-2.63321407356832e-05,2.4658991313382e-06
-0.0039904596799886,-0.00309687871318333,-2.52779648914341e-05,8.26625776559135e-07
-0.00399141335436185,-0.00309946555492077,-2.68317712764696e-05,-1.84170752703286e-06
-0.00399571680997114,-0.00310159940133091,-3.0110304381456e-05,-3.31170901128679e-06
-0.00399622940994676,-0.00310077685718398,-3.08964661822217e-05,-2.05857535701466e-06
-0.00399171137760349,-0.00309767741547092,-2.72332384574953e-05,1.2448121702913e-06
-0.00398726487083822,-0.00309420842493823,-2.14996616650749e-05,4.5939713547866e-06
-0.00398122095949775,-0.00309277791337835,-1.54736622487016e-05,6.29372161129174e-06
-0.00397233986689686,-0.00309388655983726,-6.94527329670182e-06,5.91798109763899e-06
-0.00395954870936565,-0.00309469718305452,6.12047925722295e-06,4.72524170190695e-06
-0.00394548201236022,-0.00309412497843057,2.0848710082599e-05,5.07391172695563e-06
-0.00393493198960614,-0.00309156197855246,3.20588095126971e-05,8.06939071699661e-06
-0.00392842316200871,-0.00308862942985472,3.79471681057959e-05,1.1455014856463e-05
-0.00392638468303589,-0.00308805722523077,4.046626006001e-05,1.1180100725097e-05
-0.00392694496673017,-0.00309343356450996,4.15212602668161e-05,5.82703526546247e-06
-0.00392682575743352,-0.00310125369437061,4.15128895306724e-05,-1.40605635700847e-06
-0.00392775558994744,-0.00310499686628561,4.03898808448816e-05,-5.7827536517327e-06
-0.00393191599440074,-0.00310446042445066,3.72500406920561e-05,-5.43882529892021e-06
-0.00394128584511792,-0.0031017782152759,2.97819495115605e-05,-2.49584422677123e-06
-0.00395333790500986,-0.00309947747585043,1.71099408688803e-05,-8.61593110433206e-07
-0.00396761917874927,-0.00310183781992422,2.8790089925428e-06,-3.38813637869853e-06
-0.00398014807582784,-0.00310912150794992,-7.18040011607634e-06,-9.95432791748283e-06
-0.00398415350819549,-0.00311516541929039,-1.06713466240997e-05,-1.7368452319831e-05
-0.00398273491756528,-0.00311907548422071,-9.33636424293363e-06,-2.18952777421639e-05
-0.00397970700143021,-0.0031215073538725,-5.23443625461928e-06,-2.26212651328161e-05
-0.00397514128536828,-0.00311920661444703,8.67941465708679e-07,-2.16993124349545e-05
-0.00396971726237042,-0.00311708468896655,7.68028971468638e-06,-2.10368329767891e-05
-0.00396324419756199,-0.00311763305173117,1.35597260982229e-05,-2.01823951280772e-05
-0.00395954870936565,-0.00311568994019568,1.89962253745655e-05,-1.83022705758136e-05
-0.00395438694682043,-0.00311247128918596,2.55076026393838e-05,-1.65321082914392e-05
-0.00395025038422646,-0.00311220902873331,3.13205155415346e-05,-1.65630827002296e-05
-0.00394831919362063,-0.00311418790305781,3.20795586468577e-05,-1.78451108687992e-05
-0.00395523333282669,-0.0031143309542138,2.76219680875638e-05,-1.80854767619372e-05
-0.00396049046280923,-0.00311123151250073,2.41133380651317e-05,-1.60837708013973e-05
-0.00395799898850912,-0.00310674924294646,2.64209359292882e-05,-1.23585121577586e-05
-0.00395399355614147,-0.00310342330356975,3.15932835498043e-05,-7.25573555464602e-06
-0.00395259880737059,-0.0030952932295378,3.37078561929501e-05,-2.61390482805757e-07
-0.00395615124441095,-0.00308550614628232,3.25338065907062e-05,8.60610967611722e-06
-0.00395591282581763,-0.00307639855601779,3.24982268230704e-05,1.81593211333077e-05
-0.00395448231425776,-0.00306794661688486,3.44706408385064e-05,2.70479950549478e-05
-0.00395609163976262,-0.00306063908699984,3.42981438354525e-05,3.42517865284969e-05
-0.0039616467929868,-0.00305479783146368,3.00702320087638e-05,3.8588557865921e-05
-0.00396684431832101,-0.00305544156166563,2.52430619311004e-05,3.91898105064612e-05
-0.00396965765772209,-0.00305814761269972,2.18826163781245e-05,3.68149225743461e-05
-0.00397821688522201,-0.00306080598001516,1.51938926241344e-05,3.34015921011469e-05
-0.00399577641461947,-0.00306410807753253,-9.0305155306099e-07,2.97991821587097e-05
-0.00401803279030518,-0.0030698062819127,-2.46351799806532e-05,2.50572119185936e-05
-0.0040409805799115,-0.00307651776531445,-4.66831070026939e-05,1.85574525762996e-05
-0.004054296258348,-0.00308253783479558,-5.91972509761637e-05,1.18388889315025e-05
-0.00405819440234866,-0.0030873181275915,-6.18246961828818e-05,7.3683381911003e-06
-0.00405348563513074,-0.00309001225769593,-5.94076714191308e-05,5.8221640074208e-06
-0.0040523889096015,-0.00308980960189161,-5.68589881434366e-05,5.14973587972426e-06
-0.00405253196075749,-0.0030933501180023,-5.67222866553392e-05,2.35937046091393e-06
-0.00405449891415232,-0.00309962052700642,-5.89457958909839e-05,-3.63919577806652e-06
-0.00405622744895383,-0.00310686845224312,-6.14993067493519e-05,-1.06522377000587e-05
-0.00405676389078879,-0.00311141032644572,-6.24565879975516e-05,-1.49347662276008e-05
-0.00405737185820173,-0.00311176795433569,-6.21814235096173e-05,-1.48001637264538e-05
-0.00405595326757152,-0.00310941953119156,-6.21602601191441e-05,-1.20849906226324e-05
-0.00405445123043366,-0.00310697574061011,-6.12962149472778e-05,-9.40499226873308e-06
-0.00404773974703191,-0.00310477036862197,-5.54142383362187e-05,-6.80550071321793e-06
-0.00403412604535377,-0.00310122985251128,-4.19419545442599e-05,-2.57884257912049e-06
-0.00401533866020075,-0.00309603232717707,-2.38399074490622e-05,3.06921461567713e-06
-0.00399695658665637,-0.00309174079249744,-7.38903782662559e-06,7.18636516708995e-06
-0.00398551249417737,-0.00309253949478504,3.08953928186227e-06,7.42195854174134e-06
-0.00398156666645805,-0.00309586543416175,7.15010405205184e-06,4.72741657749726e-06
-0.00398072028045179,-0.00309858340612551,6.26453561666141e-06,2.03066636305061e-06
-0.00398256802454996,-0.00309953708049876,2.2014302057174e-06,1.34219710288094e-06
-0.0039871337406119,-0.00309928674097578,-3.04020598560366e-06,2.71539029054101e-06
-0.00399156832644751,-0.00309749860152594,-7.90657825750034e-06,4.86679057974235e-06
-0.00399333262403802,-0.00309610385275506,-1.22179757112036e-05,6.0447587801375e-06
-0.00399518036813619,-0.00309813041079822,-1.57137543149618e-05,5.2492719063516e-06
-0.00399379754029498,-0.00309996623396672,-1.55688850362759e-05,3.36323985067056e-06
-0.00398536944302138,-0.00310169476876824,-7.76220913778222e-06,2.29501035481221e-06
-0.00396708273691432,-0.00310220736874386,7.7553351076641e-06,2.42894630447426e-06
-0.00394775890992635,-0.00310248155012617,2.50143663595263e-05,1.86237639117339e-06
-0.00393544458958176,-0.00310604590809619,3.70959144338791e-05,-1.15955381378188e-06
-0.00392793440389242,-0.00311241168453763,4.26232740925412e-05,-6.01817371158092e-06
-0.00392166399488831,-0.00311584491228133,4.57647648291373e-05,-1.07085366558637e-05
-0.00391716980440437,-0.00311999339580496,5.03456208546241e-05,-1.40952714902324e-05
-0.00390971922336335,-0.0031230332328697,5.55696240907996e-05,-1.62616015524249e-05
-0.00390512966544209,-0.00312423724676593,5.74837750172675e-05,-1.75303425407364e-05
-0.00390931391175472,-0.00312488097696787,5.31484425518418e-05,-1.83068212254988e-05
-0.00391773008809865,-0.0031260492280751,4.29843127570873e-05,-1.92270502018437e-05
-0.00392673038999619,-0.00312759894893163,3.02767403300493e-05,-2.02072712740649e-05
-0.00393862747780248,-0.003127193637323,1.9264994523416e-05,-1.97500565232725e-05
-0.00394326471944241,-0.00312335509797067,1.31816638832441e-05,-1.64563637571324e-05
-0.00393950962659774,-0.00311857480517476,1.31300214633741e-05,-1.11634558252389e-05
-0.00393445515241952,-0.00311394948446449,1.80658398986853e-05,-6.56286145477299e-06
-0.00392695688765984,-0.00311203021478833,2.51725247357393e-05,-4.57926421031557e-06
-0.00392043613913275,-0.00311167258689836,3.02000208888471e-05,-4.70319108731667e-06
-0.00391774200902832,-0.00311160106132037,2.88120188326255e-05,-4.69910762965462e-06
-0.00392910265499965,-0.00310944337305089,1.94278769342911e-05,-2.34052750530233e-06
-0.00394281172411512,-0.00310354251286641,5.06261939688708e-06,3.10983721001317e-06
-0.00395295643526056,-0.00309638995506704,-8.76727653746048e-06,1.01216754978223e-05
-0.00396217131389208,-0.00308994073211793,-1.85595565450373e-05,1.56503966540073e-05
-0.00397028946699437,-0.00308865327171405,-2.47271931834718e-05,1.75133071626674e-05
-0.00397185110878057,-0.0030895711832983,-2.89647799923382e-05,1.61113050833484e-05
-0.00397188687156957,-0.00309119242973282,-3.10197942594403e-05,1.33889368394296e-05
-0.00397164845297625,-0.0030938031133296,-2.9190130549931e-05,1.05619851714649e-05
-0.0039654614904798,-0.00309686679225366,-2.34356666097681e-05,7.6521441169404e-06
-0.00395662808159757,-0.0030990721642418,-1.64819031610777e-05,4.6657420986722e-06
-0.00395151400277102,-0.00310062188509833,-1.12461897751713e-05,1.922700269739e-06
-0.00394890331917425,-0.00310280341522714,-7.98068602395609e-06,-5.57906264509939e-07
-0.00394529127748557,-0.00310537833603491,-4.95684140591785e-06,-2.61050430156105e-06
-0.00394160771021889,-0.00310386437796738,-1.72036147237902e-06,-2.98592857150518e-06
-0.00394020104051835,-0.00310058612230933,-8.43191833427544e-08,-6.10152174629545e-07
-0.0039418103660232,-0.00309772509918958,-7.66719735115137e-07,2.89254933968256e-06
-0.00394049906375999,-0.00309549588534211,-2.94552617553159e-07,3.92670878545601e-06
-0.00393500351518413,-0.003096819108535,6.01311428438059e-06,1.28301232658812e-06
-0.00392434620406307,-0.00309976357816241,1.72662738664309e-05,-1.97870088512675e-06
-0.00391591810678948,-0.00310038346650502,2.57683506754561e-05,-2.71399596828075e-06
-0.00391751551136467,-0.0030986549317035,2.47309311236167e-05,-2.37669811114498e-06
-0.00392787479924409,-0.00310053843859067,1.56250667666855e-05,-5.12623655856104e-06
-0.00393797182667087,-0.00310683268945412,5.2482736923583e-06,-1.17992175130545e-05
-0.00394781851457468,-0.00311329383333289,-3.05835213998849e-06,-1.84254630236763e-05
-0.00395633005835593,-0.00311394948446449,-1.12401473022065e-05,-2.11668515730803e-05
-0.00396602177417408,-0.00311331767519222,-1.97882928790239e-05,-2.02623028268947e-05
-0.00397174382041358,-0.00311037320556481,-2.44663133694263e-05,-1.79536593209683e-05
-0.00397013449490872,-0.00310609359181485,-2.25292978320343e-05,-1.48256769370398e-05
-0.00396716618342198,-0.00310077685718398,-1.81042486397016e-05,-1.0273850719191e-05
-0.00396747612759329,-0.00309546012255312,-1.68178743154972e-05,-4.98905384507895e-06
-0.00396802449035791,-0.00308979768096195,-1.72562157804119e-05,-3.37964174720618e-07
-0.00396473431377019,-0.00308479089050239,-1.29743975499441e-05,3.99870189797707e-06
-0.00395702147227654,-0.00307894963496623,-2.67317775884339e-06,9.02191802549624e-06
-0.00394749664947371,-0.00307509917468424,6.79902212785189e-06,1.32357749223172e-05
-0.00394613766349182,-0.00307335871895306,9.06144588405271e-06,1.36429878437121e-05
-0.00395185970973132,-0.00307550448629287,5.55517750625635e-06,1.08252818849142e-05
-0.00395641350486359,-0.00307647008159578,1.82879754363139e-06,9.92173810797845e-06
-0.00395889305823404,-0.00307215470505683,-3.58496771155476e-08,1.4378735387357e-05
-0.00396245741620406,-0.0030633928217526,-1.71823255904962e-06,2.09768158258603e-05
-0.00396531843932381,-0.00306160468230275,-3.44557215251338e-06,2.37342922578697e-05
-0.00396494889050417,-0.00306422728682919,-2.60276352540016e-06,2.10991831342236e-05
-0.00396206402552509,-0.00306774396108055,2.44607168411588e-06,1.61458506636068e-05
-0.00395517372817837,-0.00307338256081239,1.00936934290734e-05,1.08128006587108e-05
-0.00394805693316799,-0.0030801059651438,1.76465204781655e-05,4.03530903964797e-06
-0.00394406342173001,-0.00308812875080876,2.37629838070215e-05,-4.01490137375085e-06
-0.00394049906375999,-0.00309317130405732,2.82490698292468e-05,-9.90954155280332e-06
-0.00393828177084218,-0.00309504289001482,3.11295670623026e-05,-1.12568593642381e-05
-0.00393735193832826,-0.00309393424355592,3.261621700277e-05,-1.0282821687456e-05
-0.00393966459868339,-0.00309442300167221,3.27989411178641e-05,-1.07368231646761e-05
-0.00394173884044521,-0.00309635419227804,3.08671400853365e-05,-1.30329184090106e-05
-0.00394693636577942,-0.00309847611775852,2.57363805419611e-05,-1.46803456161029e-05
-0.00395693802576888,-0.00309791583406423,1.7941789832271e-05,-1.39833287724527e-05
-0.00396566414628411,-0.00309460181561719,9.86465742373961e-06,-1.09106478011619e-05
-0.00397231602503753,-0.00308984536468061,3.42284969024272e-06,-5.54489184586615e-06
-0.00397852682939332,-0.00308249015107692,-1.69759134952356e-06,1.5624770514084e-06
-0.00398457074073379,-0.00307668465832976,-6.94046532332696e-06,8.03262895793769e-06
-0.00399123454041687,-0.00307353753289804,-1.27511005251424e-05,1.1340530927744e-05
-0.00399724268896834,-0.00307286996083677,-1.8302084566008e-05,1.19306970973624e-05
-0.00400233292593556,-0.00307316798407841,-2.28951932933013e-05,1.25043132048877e-05
-0.00400688672106783,-0.00307135600276923,-2.67693072595131e-05,1.42616184571865e-05
-0.00401153588363742,-0.00307017583073233,-3.03970779852515e-05,1.61188651359592e-05
-0.00401455187884282,-0.00306861418894614,-3.35124240774653e-05,1.76471418731036e-05
-0.00401698374849461,-0.00306715983552693,-3.53236163941102e-05,2.00110874196041e-05
-0.00401796126472719,-0.00306398886823588,-3.57296014334281e-05,2.3162170676895e-05
-0.00401845002284348,-0.00306327361245594,-3.57703834669835e-05,2.46933871675022e-05
-0.00401936793442773,-0.00306506175190578,-3.61813148007477e-05,2.30423912973314e-05
-0.00401875996701479,-0.00306887644939878,-3.57613108749541e-05,1.99162070665505e-05
-0.00401605391598069,-0.00307127255626157,-3.24074345324447e-05,1.78127093860653e-05
-0.00401051068368618,-0.00307325143058607,-2.61713702782648e-05,1.65596322863009e-05
-0.00400420451189306,-0.00307604092812782,-1.99730491033409e-05,1.40575896097264e-05
-0.00400035405161107,-0.00308128613718069,-1.63176172228893e-05,9.40629886555412e-06
-0.00399951958653447,-0.00308742541595849,-1.45309513042491e-05,3.55439514650381e-06
-0.00399787449824062,-0.0030944587644612,-1.26705430122507e-05,-2.46079220461463e-06
