BCL,BCC,BCL_Filtered,BCC_Filtered
-,-,-,-
-0.00108902460867313,0.000722539467962948,-2.78804724414546e-21,-1.49291470943283e-21
-0.00108882195286882,0.000718164486775666,-3.69653676134059e-06,-1.47321399698292e-06
-0.00108741528316827,0.000715780300842541,-8.57453013623515e-06,-2.2432290507746e-06
-0.00108672386924767,0.000713896793955373,-1.31889050259004e-05,-2.30606152686805e-06
-0.00108568674836676,0.000712323231239511,-1.558639385889e-05,-1.32637704570344e-06
-0.00108112103230483,0.000712966961441455,-1.63280604267165e-05,2.32577835131085e-06
-0.00107665068368022,0.000718677086751287,-1.6652636973703e-05,1.01317948548505e-05
-0.00107030874909811,0.000728392644428768,-1.49343817882344e-05,2.10914399818349e-05
-0.0010593891775244,0.000736999555647347,-8.80928234068335e-06,3.19822792043658e-05
-0.00104755169436644,0.000741267248467639,-6.52678740491037e-07,4.03516264639162e-05
-0.00103917128081151,0.00074619059241954,3.85090792236074e-06,4.65586543594805e-05
-0.001033484997361,0.000750839754989133,4.40034233396249e-06,5.22705698886875e-05
-0.00102449661639313,0.000753259703711254,8.63128611863235e-06,5.73601523624442e-05
-0.00101013189614605,0.000750970885215454,2.23010844169759e-05,5.94279470696131e-05
-0.000986707269353108,0.000747764155135402,4.0760876099319e-05,5.70558106992673e-05
-0.000967216549349817,0.000742483183293532,5.50582736871647e-05,5.25700781041682e-05
-0.00095719104750103,0.000736725374265037,6.31014038754622e-05,4.96705799489959e-05
-0.000951480922191198,0.000729954286214965,6.79184866747256e-05,4.80838746081864e-05
-0.000949847754827008,0.000723850770226167,6.69220892959435e-05,4.29044912632817e-05
-0.000953459796515691,0.000716602844989469,5.23850414520492e-05,3.0926476991794e-05
-0.000992083608632303,0.000687229674293379,2.49794883303151e-05,1.57972393782434e-05
-0.00100787884043925,0.000680983107148594,-1.39888217815139e-06,4.27382589218251e-06
-0.00101832157482633,0.000673520605177915,-1.36066953787736e-05,-1.58951966229299e-06
-0.00101870304457563,0.000664567986999034,-1.2826221455074e-05,-5.47514453207044e-06
-0.00101425653781036,0.000657594243144646,-9.30058253824406e-06,-1.05237614149579e-05
-0.00101014381707572,0.000651407280648189,-8.45271560107897e-06,-1.57600080158067e-05
-0.00100983387290441,0.000645649471619694,-8.36897631324413e-06,-1.96011401853673e-05
-0.00100914245898381,0.000639164485881596,-7.32632844447406e-06,-2.32232327941296e-05
-0.00100752121254928,0.000632083453660217,-6.2532438067544e-06,-2.80879596779567e-05
-0.00100525623591281,0.000626039542319747,-4.58293210789027e-06,-3.25670561257697e-05
-0.0010008931756552,0.000623190440129664,-1.72914170241299e-07,-3.37565398489777e-05
-0.000995504915446336,0.000623083151762673,6.11145028574226e-06,-3.1426358627898e-05
-0.000991451799360025,0.000624489821463217,1.07435649806075e-05,-2.7932816318024e-05
-0.000989663659910182,0.000625681914429779,1.29380488142205e-05,-2.49983287497622e-05
-0.00098809009719432,0.00062676671902935,1.52321877921184e-05,-2.25072390281336e-05
-0.000986957608876086,0.000626909770185338,1.83233229858281e-05,-2.00164108920433e-05
-0.000985968171713839,0.000627422370160959,1.9907843583733e-05,-1.77405998647167e-05
-0.000988483487873285,0.000627577342246612,1.94308638692544e-05,-1.59613198970772e-05
-0.000989377557598207,0.000627446212020291,1.94941422012264e-05,-1.4357204003525e-05
-0.000989747106417841,0.000628328360815547,2.12987271682507e-05,-1.19903900673544e-05
-0.000990140497096806,0.000630247630491711,2.29775878355356e-05,-8.03704352653528e-06
-0.000990521966846106,0.000633609332657417,2.40955127311537e-05,-3.36172582979342e-06
-0.000989461004105866,0.000634145774492369,2.7633519335284e-05,-1.0878649665522e-06
-0.000983178674172084,0.00063030723514004,3.5173324219299e-05,-3.77431867269324e-06
-0.000978529511602492,0.000622761286661702,4.36294255638594e-05,-9.67966210018259e-06
-0.000974023400188887,0.000616669691602569,4.92789544688868e-05,-1.38973996648614e-05
-0.000972712097925669,0.000615990198611629,5.20428957206852e-05,-1.39433277752782e-05
-0.000975382386170768,0.000616264379993938,5.34272485991383e-05,-1.20951820975391e-05
-0.000977349339565595,0.000615453756776676,5.33652023625872e-05,-1.14302656243748e-05
-0.000979614316202063,0.000613343752225861,5.19138658994901e-05,-1.23232727983555e-05
-0.000983524381132387,0.000610518491895109,5.09629156152767e-05,-1.43374182469502e-05
-0.000987565576289032,0.000604927575881933,5.05085708387357e-05,-1.83264283494028e-05
-0.00099290615277923,0.000598800218033803,4.56476800082047e-05,-2.36721746996777e-05
-0.0010077238683536,0.000595605408883417,3.19565062799615e-05,-2.57733183773795e-05
-0.00103079086725657,0.000600159204015684,1.3155850547893e-05,-1.99361393219947e-05
-0.00104616886652522,0.000612509287149268,-9.88330292922601e-07,-6.85781378013288e-06
-0.00105010277331488,0.000627088584130322,-5.22224317001764e-06,8.43790742847978e-06
-0.00105234390809202,0.000639319457967249,-4.15719441410993e-06,2.17387035432258e-05
-0.00105582481955438,0.000646746197148931,-6.0590066552109e-06,3.06600406710023e-05
-0.00106432444240597,0.000648438969161449,-1.39397916298328e-05,3.21108084889537e-05
-0.00107535130234666,0.000638878383569621,-2.46182580827538e-05,2.32807700932474e-05
-0.00108774906919891,0.000619423426355328,-3.5022137317719e-05,5.79702260485402e-06
-0.00110046870115213,0.000599575078462069,-4.69031760926933e-05,-1.4162156689319e-05
-0.00111802823054959,0.000583136116453178,-6.45631321965095e-05,-3.0453664577618e-05
-0.00114213235033347,0.000573027168096731,-8.8840469488211e-05,-3.9433326838369e-05
-0.00116931206997109,0.000572490726261778,-0.000114654741947353,-3.86557226385046e-05
-0.00118937499459833,0.000584363972208737,-0.000134924018998714,-2.73062937395912e-05
-0.0011991620778538,0.000602138078340177,-0.000145820664544022,-9.04503545275681e-06
-0.00120015151501605,0.000618910826379706,-0.000147161035938574,9.15783480858386e-06
-0.00119284398513102,0.000632953681525807,-0.00013929766815062,2.31673752681794e-05
-0.00117474801389861,0.000644218960059819,-0.00012285257348405,3.45603091315257e-05
-0.00115181214522196,0.000654840508391887,-0.000101668096951764,4.60557817709926e-05
-0.0011326552112493,0.000665175954411981,-8.24013840185459e-05,5.66812702610359e-05
-0.00111757523522229,0.000671851675024728,-6.91259983698581e-05,6.35534815625261e-05
-0.00110713250083521,0.000674021284223871,-6.05043675268547e-05,6.63340462833849e-05
-0.00109862095705396,0.000674724619074143,-5.39362267883997e-05,6.72439035091816e-05
-0.00109345919450874,0.00067505840510478,-4.97800352052555e-05,6.76382533152504e-05
-0.0010901809388507,0.000673484842388919,-4.87174485850614e-05,6.68203790990385e-05
-0.00108526951582846,0.000670397321605523,-4.71369742416856e-05,6.37274842784657e-05
-0.00107609039998593,0.000664150754460737,-3.88451192380321e-05,5.78512484184529e-05
-0.00105603939628836,0.000655210057211522,-2.08906560198319e-05,4.87449826369814e-05
-0.0010263443604913,0.000641953983423351,4.63465679050728e-06,3.64698033381913e-05
-0.000996053278210954,0.000628876723580165,3.31427886526752e-05,2.28470610766628e-05
-0.000969302712041301,0.000616133249767616,5.8812767617491e-05,1.09288927766805e-05
-0.000948500689774793,0.000608134305961985,7.49422136564221e-05,2.5155116588705e-06
-0.000942897852831951,0.000601780450450209,7.7854588988621e-05,-3.44382230884698e-06
-0.000948250350251815,0.000594759022877158,7.11361619215335e-05,-9.87415052341245e-06
-0.000954413470888941,0.000585842167487274,6.23330443602733e-05,-1.92404367332932e-05
-0.000957322177727352,0.000573015247167066,5.45629470159142e-05,-3.18464196705332e-05
-0.000966095981961249,0.000558948550161633,4.46942216633841e-05,-4.58313833956865e-05
-0.000978124199993861,0.000545001062452856,3.06274235629519e-05,-5.88924276046463e-05
-0.00098838812043596,0.000534439118769116,1.65433462527491e-05,-7.03787453195555e-05
-0.000993084966724215,0.000523316891391092,9.02602354173443e-06,-8.14248519045594e-05
-0.000989687501769513,0.000511336357077143,1.10874674391359e-05,-9.24646505967251e-05
-0.000976288376825355,0.000502872497014552,2.18713502093687e-05,-0.00010097373477629
-0.000956738052173737,0.000502121478445618,3.87228972189265e-05,-0.000102961676555861
-0.000936675127546497,0.000506269961969254,5.64807044332907e-05,-9.74587974792352e-05
-0.000924027021171273,0.000514876873187832,6.76736060450129e-05,-8.8697361327829e-05
-0.000922215039862099,0.000522601635611155,6.7818280261923e-05,-8.23248458633344e-05
-0.000927794034945609,0.000524318249483004,5.99592309541512e-05,-7.9188377689152e-05
-0.000934362467191366,0.000529933007355512,5.1172739816988e-05,-7.42188443937917e-05
-0.00094066863898448,0.000542199643981435,4.54114109732486e-05,-6.22687577514952e-05
-0.000941324290116089,0.000559783015238226,4.21238505494444e-05,-4.36625571411292e-05
-0.000942099150544354,0.000582242046728256,4.0066613643014e-05,-2.24273228666554e-05
-0.000943911131853529,0.000603866613141692,3.85019904812726e-05,-4.23964105633117e-07
-0.000945770796881365,0.000627553500387281,3.52394688594379e-05,2.3797394475098e-05
-0.000952732619806088,0.000654923954899547,2.78617230542214e-05,5.03262472972884e-05
-0.000962805805373538,0.000680482428102638,1.78792675399531e-05,7.53178884616866e-05
-0.000969672260860935,0.000697588962172804,1.03078960666332e-05,9.44026750326454e-05
-0.000972664414207006,0.000711774868474893,7.84138802086493e-06,0.000106110622034926
-0.000972652493277341,0.000715506119460232,8.24771010651813e-06,0.000110371860220431
-0.00097216373516105,0.000710499329000671,8.75267462541306e-06,0.000106424186937446
-0.000971877632849075,0.00070048574808155,9.94361814968175e-06,9.49217297477082e-05
-0.000969255028322639,0.000685846846452167,1.32426906763098e-05,8.01396021841961e-05
-0.000966739712163193,0.000672709981960653,1.70743642709259e-05,6.69428879537848e-05
-0.000966191349398574,0.000661635438301291,1.84127564516698e-05,5.65850433932862e-05
-0.000969147739955648,0.000654399433994259,1.68481306916129e-05,4.80456318201598e-05
-0.000972437916543359,0.000649344959816036,1.46164036076512e-05,4.1924719698904e-05
-0.000976419507051677,0.000645434894885712,1.328162077277e-05,3.94457161285553e-05
-0.000978195725571854,0.000644874611191428,1.23483386481619e-05,3.85071306547848e-05
-0.00098128324635525,0.00064326528568657,1.04345263441469e-05,3.48359661234102e-05
-0.000988984166919241,0.000635612048841241,5.98809868401187e-06,2.73449712182614e-05
-0.000998985826908697,0.000625920333023091,-2.2177880318112e-06,1.87972045332005e-05
-0.001010775626348,0.000619268454269675,-1.29941021341876e-05,1.07909808401282e-05
-0.00102181440721836,0.00061255697086793,-2.17140841512963e-05,1.88479396356526e-06
-0.00102773910926217,0.00060036185982,-2.39996578452121e-05,-8.3800760512964e-06
-0.00102509266287641,0.000592231785788046,-2.05814468187015e-05,-1.75716302579878e-05
-0.00102288729088827,0.000586986576735173,-1.61905944298755e-05,-2.43101044133518e-05
-0.00102278000252128,0.000580620800293732,-1.3405247564124e-05,-3.04877544968733e-05
-0.00102211243046,0.000575435195889186,-1.02181008075703e-05,-3.70056974637308e-05
-0.00101853615156032,0.000571382079802875,-4.49901245309103e-06,-4.05196386543376e-05
-0.00101290947275814,0.000574886833124568,2.06344967977728e-06,-3.79553505631682e-05
-0.00101144319840927,0.000583350693187159,6.58242530675476e-06,-3.22482781964898e-05
-0.0010123015053452,0.000583446060624484,9.32512485476731e-06,-2.97867740798754e-05
-0.00100847488692253,0.0005828857769302,1.23355109928874e-05,-3.27431627291054e-05
-0.00100911861712448,0.00057953599569416,1.4473669824189e-05,-3.70552591526071e-05
-0.00101593738889321,0.00057885650270322,1.12180848977302e-05,-3.80521576999479e-05
-0.00102682119767792,0.000582087074642603,5.3357837860812e-07,-3.55573336307731e-05
-0.00104193693649393,0.000586044823291589,-1.32864871703471e-05,-3.28704648192829e-05
-0.00105445391264283,0.000587081944172498,-2.35770204910769e-05,-3.23525662826875e-05
-0.00106117731697424,0.000587618386007451,-2.82672487335094e-05,-3.25979152751865e-05
-0.00106428867961697,0.000592851674130659,-3.10332205347926e-05,-2.92659027829158e-05
-0.00106934315379519,0.000602901017838777,-3.54911671954375e-05,-1.90871871511251e-05
-0.00107691294413286,0.000618195570599769,-4.03193794127493e-05,-4.24494195040348e-06
-0.00107809311616976,0.000632774867580823,-4.18518206604307e-05,7.40342106072608e-06
-0.00107772356735012,0.000633156337330123,-4.05804835703203e-05,7.80161816256528e-06
-0.00108016735793158,0.000620210207713259,-4.22561664297773e-05,-4.91713320626858e-06
-0.00108950144585976,0.000602138078340177,-5.11500751168846e-05,-2.52166369944548e-05
-0.00110244757547662,0.000585377251230314,-6.4079771890069e-05,-4.43731185916338e-05
-0.00111284262614504,0.00057204965186415,-7.35335556958241e-05,-5.5477912403426e-05
-0.00111415392840826,0.000574672256390587,-7.59483716104176e-05,-5.59262954760516e-05
-0.00111272341684839,0.000584685837309708,-7.40649289955338e-05,-4.74724006813538e-05
-0.00110982663093964,0.000596416032100679,-7.10311837306442e-05,-3.48431892189161e-05
-0.00110354430100586,0.000610005891919487,-6.56738607480565e-05,-2.35855200777687e-05
-0.00109272009686947,0.000616943872984879,-5.54185158146256e-05,-1.78536643619668e-05
-0.00107775933013912,0.000616192854415944,-4.09728147902015e-05,-1.85691696278328e-05
-0.00106152302393454,0.000613224542929205,-2.50566268559562e-05,-2.25407764592359e-05
-0.00104372507594377,0.000614333189388108,-8.36085019966326e-06,-2.41554303901611e-05
-0.00102431780244814,0.000618338621755756,9.40925709167091e-06,-1.97918265904377e-05
-0.00100843912413353,0.000626599826014031,2.51182784785054e-05,-1.06707990737221e-05
-0.000999283850150338,0.000641858615986026,3.32180249048694e-05,5.16519740677042e-08
-0.000998330175777088,0.000654089489822953,3.25741816297474e-05,1.23182727429676e-05
-0.00100016599894559,0.000668180028687717,2.89409954246503e-05,2.84526879346535e-05
-0.00100072628263988,0.000690543692740422,2.82831779824371e-05,4.72817148418026e-05
-0.000997376501403838,0.000708055538419219,2.98198333417799e-05,6.29052198261186e-05
-0.000996971189795207,0.000715088886921935,2.83812239130227e-05,7.1612803015202e-05
-0.00100188261281744,0.000721395058715049,2.23990811016652e-05,7.70905935367593e-05
-0.00100635296144205,0.000732708020967723,1.6568886179029e-05,8.55890771223481e-05
-0.00100517278940515,0.000744795843648663,1.64503462019714e-05,9.76726315733167e-05
-0.000997364580474173,0.000754511401326144,2.26323902479951e-05,0.000107852612087105
-0.000987350999555051,0.000759351298770386,3.08451563070058e-05,0.000111151727190437
-0.000981211720777257,0.000756287619846321,3.6146483522644e-05,0.000106904227798382
-0.000980150758037016,0.000746595904028171,3.6079305679994e-05,9.69739711334086e-05
-0.000983130990453421,0.000733709379059635,3.11708625854966e-05,8.37205553603604e-05
-0.000988566934380945,0.000720143361100159,2.42429410014883e-05,6.97729392119269e-05
-0.000992977678357224,0.000708806556988153,1.93010979698149e-05,5.66940265332547e-05
-0.000991725980742334,0.000695264380888008,1.94673915289079e-05,4.32617661031383e-05
-0.000985109864777914,0.000679385702573401,2.45258329655907e-05,2.75002471644014e-05
-0.00097733741863593,0.000664162675390403,3.05313989054227e-05,1.07646283406679e-05
-0.000975573121045418,0.000650954285320895,3.29307813903312e-05,-2.82636282396698e-06
-0.00097657447913733,0.000642073192720007,3.06056092497674e-05,-1.18194176429343e-05
-0.000979232846452763,0.000634467639593341,2.62469496650808e-05,-1.98347543965764e-05
-0.000982654153266797,0.000623989142417261,2.25337146007892e-05,-3.12672290356971e-05
-0.000985908567065511,0.000609111822194566,1.91967430454159e-05,-4.64025808578712e-05
-0.000989961683151822,0.000593578850840262,1.47381541534629e-05,-6.20023182216824e-05
-0.000993776380644821,0.00058125260956601,9.49518463711458e-06,-7.50758184175215e-05
-0.000998139440902438,0.000572311912316794,4.94057190553952e-06,-8.46199598327001e-05
-0.00100278860347203,0.000566017661453346,9.11784187063272e-07,-9.08449071936753e-05
-0.00100731855674497,0.000562894377880953,-3.63959547346625e-06,-9.43767457428739e-05
-0.00100971466360776,0.000562119517452688,-7.19617728361037e-06,-9.60041385460953e-05
-0.00100814110089189,0.000561940703507704,-6.17504560462272e-06,-9.62051820362505e-05
-0.0010046721103592,0.000563550029012563,-1.27174388521859e-09,-9.47092606938398e-05
-0.000996732771201895,0.000568354163667808,7.11846258538959e-06,-9.05445121593614e-05
-0.000990963041243734,0.000576889549308392,1.12009947694086e-05,-8.24444815003347e-05
-0.000991261064485375,0.000589561497542947,1.27754622183704e-05,-6.99465613394423e-05
-0.000991892873757653,0.000604438817765642,1.41167465080076e-05,-5.50404026980645e-05
-0.000990033208729816,0.000618064440373447,1.48340389310312e-05,-4.20308595210721e-05
-0.000991010724962397,0.000626456774858044,1.34087221208671e-05,-3.41331306809558e-05
-0.000995123445697036,0.00063041452350703,1.1217393812279e-05,-3.02753342921704e-05
-0.000997602999067485,0.000633585490798085,1.09855139197485e-05,-2.66427285991119e-05
-0.000995969831703295,0.000640177764903174,1.18324676407798e-05,-2.10606983562418e-05
-0.000996339380522929,0.000647747555240843,9.89185607750961e-06,-1.41195804357252e-05
-0.00100672251026169,0.000654745140954562,4.29783014153928e-06,-6.31863826351477e-06
-0.00101313597042179,0.000664222280038731,-1.18201413285269e-06,3.47425753336993e-06
-0.00101324325878878,0.000679183046769085,-3.70375438344262e-06,1.62522280268896e-05
-0.00101699835163345,0.000693213980985521,-5.2003520043239e-06,3.16010801365818e-05
-0.00102331644435623,0.000709724468572406,-8.70559896844367e-06,4.85096065735565e-05
-0.00102838283946412,0.000727343602618194,-1.3396933251816e-05,6.51274069531666e-05
-0.00102998024403931,0.000739550634595789,-1.56593111120318e-05,7.74054090121871e-05
-0.00102909809524406,0.000743246122792132,-1.34491509202003e-05,8.11778410033216e-05
-0.00102663046280327,0.000738060518387587,-7.60697285424845e-06,7.71415688624386e-05
-0.00101958519337089,0.000733077569787357,-3.78039344206921e-07,7.09654317352627e-05
-0.00101245647743085,0.000728488011866093,5.2612689619257e-06,6.64653989499451e-05
-0.00101480490057498,0.000721681161027024,6.29358005182351e-06,6.14117650778855e-05
-0.00102039581658815,0.000714194817197014,2.42582129721622e-06,5.27386496803369e-05
-0.0010251641884544,0.000703620952583608,-2.44317245426124e-06,4.31482455344155e-05
-0.00102709537906023,0.000698542636546054,-4.19948847603977e-06,3.83852583100875e-05
-0.00102850204876077,0.000698912185365688,-4.04379979139357e-06,3.90820825773145e-05
-0.00103499895542854,0.000698494952827391,-7.68302516663989e-06,3.95374868645091e-05
-0.00104523903401131,0.000693225901915187,-1.84893497779804e-05,3.48168572187572e-05
-0.00105943686124306,0.000683939497705668,-3.35712569949352e-05,2.55154638015592e-05
-0.00107692486506253,0.000671374837838104,-4.75489419374882e-05,1.47375693866247e-05
-0.00108928686912578,0.000659918824429442,-5.82783361647365e-05,3.68018434206388e-06
-0.0010962486920505,0.000647711792451846,-6.71862167535871e-05,-8.05302626834532e-06
-0.00110538012417436,0.000634133853562704,-7.51511015429041e-05,-2.00085465779685e-05
-0.00111352211913598,0.000622606314576048,-8.02131357610039e-05,-3.07414639946056e-05
-0.00111274725870772,0.000613367594085192,-7.95749368848959e-05,-3.91098125452961e-05
-0.00110455758002744,0.00060613158977816,-7.25837563408589e-05,-4.456122863961e-05
-0.00109566456649688,0.00060286525504978,-6.13039239510032e-05,-4.69771505650463e-05
-0.00108438736703321,0.000601828134168871,-4.89966012346207e-05,-4.69240837304887e-05
-0.00107414728845044,0.000601351296982246,-3.85024613027805e-05,-4.51586552840875e-05
-0.00106574303303617,0.000603961980579017,-3.12536208466368e-05,-4.14887158345886e-05
-0.00106388336800834,0.000609028375686906,-2.66879251644455e-05,-3.52505521637722e-05
-0.00106025940538999,0.000614964998660385,-2.24782952996437e-05,-2.72185260723725e-05
-0.00105204588485038,0.000620675123970218,-1.60583490645838e-05,-1.96005334696189e-05
-0.0010445118573017,0.000625228919102485,-6.24239957683573e-06,-1.35937862376294e-05
-0.00103142267652885,0.000629091300314146,7.10290782527177e-06,-8.41668595958518e-06
-0.00101326710064811,0.000631380118809945,2.48858490619025e-05,-3.43713589340101e-06
-0.00098963981805085,0.000633311309415776,4.8691548611629e-05,3.58684856981263e-07
-0.00096228128446825,0.000633668937305745,7.72463803687702e-05,2.10650501912097e-06
-0.00093538766714261,0.000632500686198514,0.000103640667677554,2.89260458411909e-06
-0.000920271928326602,0.000631427802528608,0.000118623684233636,4.55080372822296e-06
-0.000921082551543865,0.00063261989549517,0.000118178140370684,7.60662622375912e-06
-0.000932896192842495,0.000635302104669935,0.000107062110962021,1.14681808635835e-05
-0.000944960173664103,0.000636374988339841,9.39890576776971e-05,1.55866129183665e-05
-0.000954544601115262,0.000638353862664334,8.41348175941987e-05,1.92843787884833e-05
-0.000962567386780225,0.000638365783593999,7.71273909282137e-05,2.15393004417411e-05
-0.000968277512090058,0.00063751939758774,7.07570763676121e-05,2.2316946555784e-05
-0.000973928032751562,0.000636100806957531,6.41756110662406e-05,2.31935556733955e-05
-0.000980567990575313,0.000635981597660875,5.75155365140999e-05,2.52261916008845e-05
-0.000987601339078029,0.000635755099997228,5.0775672909691e-05,2.70999169329532e-05
-0.000993442594614183,0.000634563007030666,4.42726363697656e-05,2.7066236043668e-05
-0.000997233450247851,0.000630915202552986,3.89193866193408e-05,2.60336027921752e-05
-0.00100113159424851,0.000629711188656759,3.50447714772121e-05,2.67818384708152e-05
-0.00100477939872619,0.000632143058308545,3.18863586396081e-05,3.0253379109227e-05
-0.00100568538938078,0.000633990802406716,2.89849997648968e-05,3.43817715916832e-05
-0.0010065436963167,0.000634622611678994,2.67111870771102e-05,3.66745173929411e-05
-0.00100971466360776,0.000633394755923435,2.41017857281704e-05,3.63195477762386e-05
-0.00101529365869127,0.000628387965463875,1.76476842253465e-05,3.35415096878612e-05
-0.00102620130933531,0.000621986426233436,4.74749589760916e-06,2.86478025935417e-05
-0.00104128128536232,0.000615882910244638,-1.19446922612999e-05,2.24573502493597e-05
-0.00105646854975632,0.000607526338549038,-2.64739682602624e-05,1.6245352306678e-05
-0.00106561190280985,0.000599575078462069,-3.69743184718051e-05,1.02100271409327e-05
-0.00107367045126381,0.000593102013653637,-4.87708470533227e-05,2.99028084557891e-06
-0.00109375721775038,0.000583159958312509,-6.79255624361647e-05,-6.11266383476893e-06
-0.00111738450034764,0.000572061572793816,-9.29110222146716e-05,-1.50927998373882e-05
-0.00113712555987391,0.000565981898664349,-0.00011528642718946,-2.09407957508438e-05
-0.00114901072675054,0.000564348731300159,-0.000128572182068021,-2.36427946634712e-05
-0.00115330226143016,0.00055966380594157,-0.000133988904048063,-2.72243598645342e-05
-0.00115463740555271,0.000550043615701414,-0.000136623030619107,-3.56286231826704e-05
-0.00115375525675745,0.000538444551136765,-0.000138429518275027,-4.77798250870484e-05
-0.001151347228965,0.000530159505019158,-0.000137474783538444,-5.79762637908416e-05
-0.00114530331762453,0.000524687798302638,-0.000132939766439039,-6.16783586815928e-05
-0.00113819844354382,0.000526440174963485,-0.000127386700707518,-5.98000741503139e-05
-0.00113064057413581,0.00053249600723362,-0.00012259303446697,-5.63039638231015e-05
-0.0011216283513086,0.000535833867539994,-0.000115298339751917,-5.28902551578891e-05
-0.00110549933347102,0.000540435346390924,-9.99024601210214e-05,-4.83043424427417e-05
-0.00107748514875681,0.000547838243713274,-7.53463804916252e-05,-4.23178070776435e-05
-0.00104757553622577,0.000553870234124078,-4.68578095641878e-05,-3.71221714790891e-05
-0.00101919180269192,0.000559687647800901,-1.96381187665146e-05,-3.36160100740157e-05
-0.000989127218075229,0.000563740763887212,7.2227958436217e-06,-2.92149052933815e-05
-0.000957298335868021,0.000572896037870409,3.78782301590263e-05,-2.1714897533459e-05
-0.000922465379385077,0.00058375600479579,7.11155799936516e-05,-1.3425115177346e-05
-0.000893008762181327,0.000589048897567326,9.7768519748118e-05,-8.82701476748882e-06
-0.000880551390680754,0.000590515171916197,0.000108843942062355,-9.40912482988478e-06
-0.000883185916136856,0.000587534939499792,0.000105129800085216,-1.3453613330265e-05
-0.000888550334486385,0.000583982502459437,9.67970684325253e-05,-1.96676056550918e-05
-0.000890135818131913,0.000578129325993617,9.38007013597702e-05,-2.75322169622706e-05
-0.000885391288124996,0.000572764907644088,9.81943180094438e-05,-3.43415600069496e-05
-0.000875020079315905,0.000573408637846031,0.000105241811123225,-3.57083174653447e-05
-0.000870144419082666,0.000581073795621025,0.000109257848630619,-3.01985054309818e-05
-0.000871694139939197,0.000593996083378558,0.000107228647613866,-2.07003419508233e-05
-0.00087740426524903,0.00060545209678722,9.90863314714143e-05,-9.85531384262857e-06
-0.000888061576370095,0.000620877779774533,8.712918741201e-05,3.50254696046329e-06
-0.00090035205485535,0.000642967262444929,7.48050036869427e-05,2.17024816314932e-05
-0.000909507328838547,0.000666570703182858,6.40156064263541e-05,4.37194310428866e-05
-0.000918936784204053,0.000689303916055197,5.33316457298571e-05,6.47515411994029e-05
-0.00093154912779028,0.000705921692009073,4.02309610489065e-05,7.90775441170762e-05
-0.00094662910381729,0.000712931198652458,2.51505814765792e-05,8.25973818636005e-05
-0.000958681163709233,0.000706779998944998,1.16338579000187e-05,7.46303692182304e-05
-0.000968098698145073,0.000692582171713243,1.94351080514919e-06,5.8989172955256e-05
-0.000975680409412408,0.000678265135184832,-5.65636287751239e-06,4.20719778062417e-05
-0.000984084664826671,0.000668096582180058,-1.39377664766885e-05,2.83523877044209e-05
-0.000992012083054309,0.000659191647719839,-2.24911890157863e-05,1.84608407255049e-05
-0.000997972547887119,0.000654637852587572,-2.85314253105074e-05,1.21530829509375e-05
-0.00100176340352079,0.00065671209434939,-3.13044409661806e-05,1.09390794494182e-05
-0.00100376611970461,0.000663518945188459,-3.32055874140979e-05,1.59226361588127e-05
-0.00100647217073871,0.000674259702817184,-3.58567831206193e-05,2.47545894393609e-05
-0.00100833183576654,0.000683951418635334,-3.71885019730247e-05,3.31627173539968e-05
-0.00100673443119135,0.000692749064728562,-3.41225559917909e-05,3.86817998811752e-05
-0.00100040441753891,0.000696110766894267,-2.70633246137352e-05,4.08660177277987e-05
-0.000992977678357224,0.000695741218074633,-1.97428614020125e-05,3.88742847097954e-05
-0.000989937841292491,0.000690543692740422,-1.47538939930587e-05,3.16046383738408e-05
-0.000987613260007695,0.000680768530414613,-1.10448297243112e-05,2.02102052521845e-05
-0.000983989297389346,0.000670290033238532,-6.34989563959991e-06,8.1541071602243e-06
-0.000978577195321154,0.000662136117347247,-5.26007164447717e-07,-1.72770588094483e-06
-0.000975859223357393,0.000655782261835471,4.71870521803212e-06,-8.75368279155517e-06
-0.000974106846696546,0.000653994122385628,8.44437817301752e-06,-1.32511534174065e-05
-0.000971508084029441,0.000651276150421867,1.12339414979665e-05,-1.60306739020077e-05
-0.000971567688677769,0.000649678745846673,1.34419831786076e-05,-1.92489897489708e-05
-0.0009731174095343,0.000645172634433069,1.41253999327944e-05,-2.54416979318015e-05
-0.00097676521401198,0.000636220016254188,1.22588960963553e-05,-3.44096278624257e-05
-0.000981760083541875,0.00063011650026539,8.04612347298438e-06,-4.231071759765e-05
-0.000990414678479116,0.000628006495714575,2.24064635212683e-06,-4.47686228774155e-05
-0.000999951422211612,0.000633990802406716,-5.17891272539542e-06,-4.01125398333421e-05
-0.00101044184031736,0.000644683876316778,-1.45483120996566e-05,-2.9555145989314e-05
-0.00102301842111459,0.000658977070985858,-2.47413583584855e-05,-1.5952670700366e-05
-0.00103335386713468,0.0006729364796243,-3.28325916656378e-05,-2.93803069292735e-06
-0.00103782421575929,0.000683081190769743,-3.61171052125676e-05,6.86908892366135e-06
-0.00103894478314786,0.000690174143920788,-3.41984870108823e-05,1.42839481023713e-05
-0.00103472477404623,0.000699293655114988,-2.88678593096602e-05,2.25212666846686e-05
-0.00103001600682831,0.000709128422089125,-2.24145017509563e-05,3.19146071343227e-05
-0.00102711922091956,0.000713670296291727,-1.65121288352291e-05,3.7142673176415e-05
-0.00102375751875386,0.00070922378952645,-1.2193583240242e-05,3.22771684037643e-05
-0.00102274423973228,0.000694608729756399,-9.74821680929556e-06,1.80162510686232e-05
-0.00102442509081513,0.000678348581692492,-8.32368716281539e-06,1.24462589289306e-06
-0.00102306610483325,0.00066324476380615,-6.52047950698451e-06,-1.26987654459299e-05
-0.00102262503043562,0.000651359596929526,-4.08154778685549e-06,-2.45557295245078e-05
-0.00102282768623994,0.000638616123116977,-2.40151845356795e-06,-3.70437351731883e-05
-0.0010240197792065,0.000625741519078107,-2.47939185502066e-06,-4.90303452055335e-05
-0.00102555757913337,0.000618529356630406,-2.83879694076908e-06,-5.63054109723883e-05
-0.00102547413262571,0.000616049803259957,-8.43732646231876e-07,-5.68631837938676e-05
-0.00102179056535903,0.000620186365853927,3.77583455538364e-06,-5.27253804996375e-05
-0.00101805931437369,0.000625801123726435,8.15211535457126e-06,-4.66523171360512e-05
-0.00101794010507703,0.000631141700216633,9.79375235502995e-06,-3.95215319244475e-05
-0.00101926332826992,0.000637459792939412,9.64041287379188e-06,-3.17610248891576e-05
-0.00101852423063065,0.000644207039130153,1.03896533251048e-05,-2.52664682335284e-05
-0.00101705795628178,0.000645494499534041,1.2801882494639e-05,-2.19414413982102e-05
-0.00101552015635491,0.000644731560035441,1.54812145236917e-05,-2.09850339087115e-05
-0.00101308828670313,0.000645470657674709,1.78019764269379e-05,-1.94158822835198e-05
-0.00101054912868435,0.000647914448256162,2.06321467615391e-05,-1.554903807125e-05
-0.00100822454739955,0.000650990048109892,2.36080351087954e-05,-1.06577670628153e-05
-0.00100774771021293,0.000653600731706663,2.41337727810592e-05,-6.49281176903884e-06
-0.00101054912868435,0.000656104126936443,2.08723651031133e-05,-2.16667701530184e-06
-0.00101556784007358,0.000661778489457279,1.66357822107534e-05,5.07305306023263e-06
-0.00101581817959655,0.000671029130877801,1.54385361442317e-05,1.59836063408645e-05
-0.00101380354248306,0.000680375139735647,1.72458896914302e-05,2.76750224871433e-05
-0.00101321941692945,0.000687551539394351,1.79569335873333e-05,3.6744515758252e-05
-0.00101585394238555,0.000692331832190265,1.47170012113275e-05,4.31383814949223e-05
-0.00101991897940153,0.000696432631995239,9.11220741446375e-06,4.9372200456757e-05
-0.00102492576986109,0.000700688403885865,4.46229372368126e-06,5.6180945341983e-05
-0.00102717882556789,0.000703620952583608,1.86506419057121e-06,6.09289348013735e-05
-0.00102666622559227,0.000701832813133765,-1.23218191861805e-08,6.11376309439446e-05
-0.00102959877429001,0.000696122687823933,-2.92196713334311e-06,5.78117105960326e-05
-0.0010342479368596,0.000689613860226504,-8.36769080915917e-06,5.36113818080994e-05
-0.00104256874576621,0.000682842772176431,-1.7632247350441e-05,4.90075161253737e-05
-0.0010532856615356,0.000674128572590862,-3.04412696429661e-05,4.26438666592616e-05
-0.00106629139580079,0.000665175954411981,-4.40299655941283e-05,3.51639660653583e-05
-0.00107707983714818,0.000656354466459421,-5.52283112728934e-05,2.99561785575119e-05
-0.00108312374848865,0.000654101410752619,-6.32681881814538e-05,2.91373581462709e-05
-0.00108717686457496,0.000654017964244959,-6.90827043225453e-05,3.07929248892395e-05
-0.00108999020397605,0.00065181259225682,-7.23695522896461e-05,3.16459203061133e-05
-0.00108840472033052,0.000649130383082055,-7.15594849696689e-05,3.11193142506108e-05
-0.00108129984624981,0.00064789060639683,-6.68392960616248e-05,3.1118548936963e-05
-0.00107402807915378,0.000646400490188628,-6.07217126634369e-05,3.25213025023801e-05
-0.00106693512600274,0.00064568523440869,-5.45421857549694e-05,3.35516750458149e-05
-0.00105873352639279,0.000641953983423351,-4.66043648455921e-05,3.17352880566393e-05
-0.00104455954102037,0.000634682216327322,-3.55653386815893e-05,2.65440703737556e-05
-0.00103204256487146,0.000626695193451356,-2.3771507555642e-05,1.9919902588818e-05
-0.00102330452342656,0.0006189823519577,-1.4567904500609e-05,1.44146068964461e-05
-0.0010134459145931,0.000613200701069874,-7.16746739259494e-06,1.05048271756012e-05
-0.00100187069188778,0.000607895887368672,2.8242204919287e-06,5.65987550559254e-06
-0.000987410604203379,0.000596654450693992,1.74800757604643e-05,-3.16898811783334e-06
-0.00097042327942987,0.000582134758361265,3.37286365678455e-05,-1.59162944491839e-05
-0.000954723415060247,0.000568985972940086,4.73632973340416e-05,-2.93034548897759e-05
-0.000944483336477478,0.000555574927066262,5.75356892433749e-05,-4.07176619302367e-05
-0.000936234053148869,0.000543844732275291,6.55504213060925e-05,-5.06908220146597e-05
-0.000929439123239465,0.000534224542035135,7.09073894792885e-05,-6.05878147013811e-05
-0.000929546411606455,0.000524497063427988,7.10061720889091e-05,-6.94697331163337e-05
-0.000935375746212944,0.000517404110276944,6.45320341471958e-05,-7.50657194724624e-05
-0.000945794638740697,0.000515222580148135,5.33580491960596e-05,-7.69464570462121e-05
-0.000959110317177195,0.000515556366178773,4.09619848404856e-05,-7.68748083358539e-05
-0.000968885479503004,0.000515198738288804,3.02017696637192e-05,-7.64719782118584e-05
-0.000976622162855992,0.000515091449921814,2.25683104878442e-05,-7.6165541875301e-05
-0.000981569348667225,0.000515437156882117,1.80639838937794e-05,-7.59718512861514e-05
-0.00098474031595828,0.000516188175451051,1.52320922598189e-05,-7.5542723142437e-05
-0.000987362920484717,0.000518429310228187,1.23813000246106e-05,-7.36650116564946e-05
-0.000991237222626044,0.000522053272846536,9.48638917338603e-06,-6.94247528162478e-05
-0.000992918073708896,0.000528943570193265,8.23096738488353e-06,-6.37599313585573e-05
-0.00099165445516434,0.000535178216408385,9.70530362243193e-06,-5.82903013927084e-05
-0.000990283548252794,0.000540566476617245,1.27873755571532e-05,-5.2916257984919e-05
-0.000987601339078029,0.00054814818788458,1.5455708220862e-05,-4.64048516955431e-05
-0.000986659585634445,0.000556457075861518,1.71731264139395e-05,-3.89949150195643e-05
-0.000986671506564111,0.00056437257315949,1.91747582532117e-05,-3.20519371806777e-05
-0.000983917771811352,0.000572514568121109,2.25144464231059e-05,-2.50904065496922e-05
-0.000980377255700663,0.000582647358336887,2.64676743349473e-05,-1.58899073340363e-05
-0.000979948102232701,0.000595557725164755,2.9162211321629e-05,-4.30025147528898e-06
-0.000980508385926985,0.000607943571087335,2.97387525513564e-05,6.90599419248615e-06
-0.000981438218440903,0.00061947111007399,2.96871267128714e-05,1.64305384511674e-05
-0.000981009064972941,0.000630927123482652,3.1545700109336e-05,2.68993732353081e-05
-0.000978374539516839,0.000645208397222066,3.58812945564271e-05,4.0411687615476e-05
-0.000975954590794718,0.00066142086156731,4.00204878626465e-05,5.37543905171748e-05
-0.000975835381498061,0.000670850316932816,4.05454464152089e-05,6.14926137545762e-05
-0.000982117711431844,0.000672638456382659,3.6714019330434e-05,6.32161423783564e-05
-0.000989627897121185,0.000676381628297664,3.03626687756501e-05,6.4405317034527e-05
-0.000998508989722072,0.000684118311650652,2.26958584648765e-05,6.9464369359868e-05
-0.00101019150079438,0.000691783469425647,1.27822672093294e-05,7.6396908561811e-05
-0.00102462774661945,0.000696051162245939,-3.9686643232958e-07,7.94979056311941e-05
-0.00104137665279965,0.000694918673927705,-1.60334861622351e-05,7.5449566324783e-05
-0.00105966335890671,0.000686812441755083,-3.24555160058437e-05,6.54877548335788e-05
-0.00107660299996155,0.000675308744627758,-4.85202416907278e-05,5.3250952878362e-05
-0.00109212405038619,0.000667130986877143,-6.29562240868564e-05,4.2509846847965e-05
-0.00110443837073078,0.000662422219659222,-7.38018154547185e-05,3.61635950627472e-05
-0.00111155516574116,0.000662636796393203,-8.00849162167513e-05,3.49830355303819e-05
-0.00111542946788248,0.000667262117103464,-8.29932480028771e-05,3.66843092740278e-05
-0.00111724144919166,0.000668752233311667,-8.38539857953824e-05,3.78045567981463e-05
-0.00111606127715476,0.00067034963788686,-8.21478067121911e-05,3.73831364772432e-05
-0.0011118531889828,0.000672924558694634,-7.72357094563233e-05,3.76295833223388e-05
-0.00110589272414999,0.000677621404982889,-7.02888728918298e-05,4.00306365415564e-05
-0.00109690434318211,0.000679326097925073,-6.13949576831825e-05,4.21813357161823e-05
-0.00108112103230483,0.000679993669986347,-4.58500136502946e-05,4.02498868458653e-05
-0.00105451351729116,0.000677037279429273,-1.78421689962969e-05,3.37335728707051e-05
-0.00101586586331522,0.000668013135672399,2.0787440988025e-05,2.55166161238359e-05
-0.000975954590794718,0.000661838094105607,5.85982443863793e-05,1.75648078154261e-05
-0.000953006801188397,0.000656294861811093,8.3166932669102e-05,9.41799846457563e-06
-0.000946652945676621,0.000650036373736642,8.97471347603999e-05,1.42428415998846e-06
-0.000952816066313747,0.000645029583277081,8.1037107132697e-05,-4.04645843128755e-06
-0.000971043167772482,0.000643718281013863,6.24735540506615e-05,-6.86122058658419e-06
-0.000994217455042449,0.000641000309050102,4.04489363216904e-05,-1.17480720043111e-05
-0.00101072794262933,0.000631237067653958,2.14918188327092e-05,-2.3133908212772e-05
-0.00102254158392796,0.000616562403235579,8.15788665728214e-06,-3.87204076825406e-05
-0.00103387838803997,0.000604105031735005,-3.66629182894345e-06,-5.16900669960322e-05
-0.0010495067268316,0.000600314176101337,-1.96756504447857e-05,-5.85545521174263e-05
-0.00106669670740942,0.000598502194792163,-3.95586578015161e-05,-6.11628253412774e-05
-0.00108278996245801,0.000599253213361097,-5.75445876699631e-05,-6.1336911256288e-05
-0.0010947228130533,0.000603210962010083,-6.99518488018488e-05,-5.81910758637589e-05
-0.00110183960806367,0.000611662901143008,-7.83774256165148e-05,-5.22274937542582e-05
-0.00110509402186239,0.00061715844971886,-8.51247574753976e-05,-4.78964153194576e-05
-0.00110770470545916,0.000616192854415944,-8.95143858545938e-05,-4.90426391043463e-05
-0.00110845572402809,0.000612378156922946,-8.99840967642259e-05,-5.42322566811475e-05
-0.00110042101743347,0.000609564817521859,-8.5945346387249e-05,-5.93456138781666e-05
-0.00108731991573095,0.000606346166512142,-7.54267180237451e-05,-6.28098755514685e-05
-0.00106589800512183,0.000605142152615914,-5.47354377344494e-05,-6.52325635962862e-05
-0.00103341347178301,0.000605797803747523,-2.42828257302367e-05,-6.52567885063908e-05
-0.000998187124621101,0.000613164938280877,7.46822463384064e-06,-5.94072806135055e-05
-0.0009734988792836,0.000628089942222234,3.00055322371005e-05,-4.64808927889149e-05
-0.000962328968186913,0.000643312969405232,4.01343881152538e-05,-2.99183216290455e-05
-0.00095765596375799,0.000659966508148104,4.23834319933571e-05,-1.52873958982994e-05
-0.000954759177849244,0.000670778791354823,4.13289386336837e-05,-6.44094541089685e-06
-0.000957632121898658,0.0006729364796243,3.78046210536427e-05,-3.61793546312142e-06
-0.00096092229848637,0.000673925916786546,3.28005087563205e-05,-3.6972279407571e-06
-0.000959944782253789,0.00067571405623639,3.00936018874215e-05,-2.52897820883032e-06
-0.000956296977776109,0.000681245367601238,3.21440080099954e-05,1.50932883280127e-06
-0.000950980243145242,0.000686049502256483,3.62511513976267e-05,6.39174765802173e-06
-0.000946354922434981,0.000689530413718844,3.79393934971213e-05,9.95954723075714e-06
-0.000946223792208659,0.000694584887897067,3.66269042893316e-05,1.37898371506156e-05
-0.000945615824795712,0.000703299087482636,3.50515558706389e-05,2.17257008859502e-05
-0.000944948252734438,0.000715613407827223,3.4168677402297e-05,3.48641848620559e-05
-0.000945842322459359,0.00073121790475952,3.20585023742146e-05,4.99093583641758e-05
-0.000947272834019234,0.000744080587868725,2.81684410997788e-05,6.24508736784239e-05
-0.000948870238594427,0.00075204376888536,2.54542975533005e-05,6.99217073952017e-05
-0.000946950968918262,0.000751864954940376,2.66432867794613e-05,7.12121156545848e-05
-0.000941038187804114,0.000747573420260752,3.02930743767228e-05,6.58421950171332e-05
-0.000938439425137009,0.0007360101184851,3.25044779842972e-05,5.49585052155557e-05
-0.000937783774005399,0.000722396416806961,3.15493149275049e-05,4.18504186513472e-05
-0.000940167959938524,0.000710439724352343,2.89373654919647e-05,3.00774924101066e-05
-0.000941300448256758,0.000700807613182522,2.63810288086608e-05,2.13886004575711e-05
-0.000943434294666904,0.000694847148349711,2.37811901199119e-05,1.57518165674399e-05
-0.000946176108489997,0.000690722506685406,2.07438941077175e-05,1.24242019088973e-05
-0.000947570857260874,0.000687444251027361,1.8441216383795e-05,1.04005039087207e-05
-0.000947380122386224,0.00068532232554688,1.85558062783549e-05,8.70817484096457e-06
-0.000945174750398084,0.000682091753607497,2.08054874622981e-05,6.9861957376664e-06
-0.000942432936574992,0.00067936186071407,2.26732043423571e-05,5.30205603693437e-06
-0.000944173392306172,0.000676262419001008,2.18587155700247e-05,3.28226178540876e-06
-0.000946962889847928,0.000671827833165397,1.84181787130915e-05,4.09752606705213e-07
-0.00095199352216682,0.000667178670595805,1.41212110871743e-05,-2.60441736359305e-06
-0.000956022796393799,0.000664544145139703,1.00511408547271e-05,-4.11562222772433e-06
-0.000961065349642357,0.000663149396368825,5.50356380045648e-06,-3.85956648921364e-06
-0.000967562256310121,0.000661277810411323,-4.94831191517105e-07,-3.56352246675892e-06
-0.000974929390843474,0.000659060517493517,-7.14962089670929e-06,-4.18744986111647e-06
-0.000980329571982,0.000658249894276255,-1.22933487547241e-05,-3.91891596356252e-06
-0.00098387008809269,0.000658547917517896,-1.49432053535096e-05,-5.64316382420364e-07
-0.00098637348332247,0.0006626725591822,-1.65091538624077e-05,4.97998109469276e-06
-0.000989377557598207,0.00066564087066894,-1.87813659506837e-05,9.68256635355062e-06
-0.000992596208607924,0.000666070024136902,-2.15441320025324e-05,1.25602357112093e-05
-0.000995945989843964,0.000667476693837446,-2.33645763307242e-05,1.57697127316362e-05
-0.000997436106052166,0.000670087377434216,-2.42035693712649e-05,2.09629602356836e-05
-0.000999832212914956,0.000674057047012868,-2.55105423379838e-05,2.64023430090956e-05
-0.00100258594766771,0.000674414674902837,-2.75168803316887e-05,2.89990788262266e-05
-0.00100466018942953,0.000670719186706494,-2.82242831685758e-05,2.81325823476521e-05
-0.00100339657088498,0.000667011777580486,-2.60388479812914e-05,2.59431155862394e-05
-0.00100078588728821,0.000663411656821469,-2.20204184675542e-05,2.42140446780186e-05
-0.000997066557232532,0.000658774415181542,-1.82394686035732e-05,2.23911873111358e-05
-0.000995981752632961,0.000653493443339672,-1.50214643912119e-05,1.89558420835855e-05
-0.000993633329488833,0.0006463408855403,-1.14455554037238e-05,1.37055723841116e-05
-0.0009898305529255,0.000638735332413633,-7.84505394518387e-06,7.97802251184531e-06
-0.000989770948277172,0.000631403960669277,-5.85779236877595e-06,3.04489784972972e-06
-0.000991308748204037,0.000625360049328807,-5.96569220263299e-06,-1.06962019610659e-06
-0.000992620050467256,0.000619757212385965,-6.64940135762645e-06,-5.19423230164465e-06
-0.000992620050467256,0.00061312917549188,-6.40706760806881e-06,-9.87093197198555e-06
-0.000993835985293149,0.000606358087441807,-5.39465062040516e-06,-1.4833533220809e-05
-0.000994181692253452,0.000599241292431432,-4.69231997697718e-06,-1.95616873309444e-05
-0.000994372427128102,0.000594353711268527,-5.0395805917609e-06,-2.42352096570643e-05
-0.000997424185122501,0.00058625940002557,-6.70295796126446e-06,-2.99894569189215e-05
-0.00100213295234042,0.000576436553981099,-9.60868934443969e-06,-3.80102217139526e-05
-0.00100607878005974,0.000564885173135112,-1.31170216090643e-05,-4.8252915175721e-05
-0.00100927358921013,0.000553834471335081,-1.63454218233294e-05,-5.91363296403571e-05
-0.0010138273843424,0.000541961225388123,-1.89160782222727e-05,-6.85894886719626e-05
-0.00101699835163345,0.000533735783918845,-2.07527160118837e-05,-7.53214546204691e-05
-0.00101739174231242,0.000530040295722502,-2.14229554680772e-05,-7.90692228409072e-05
-0.00101761823997606,0.000528073342327675,-2.08505632445927e-05,-8.00436242518536e-05
-0.00101926332826992,0.00052721503539175,-2.03704716214712e-05,-7.87331026628764e-05
-0.0010206580770408,0.000529658825973202,-2.13037233983086e-05,-7.62155676811553e-05
-0.00102152830490639,0.000531864197961342,-2.24164063863045e-05,-7.37923872324623e-05
-0.00102196937930401,0.000532543690952283,-2.09826710468407e-05,-7.1536110776068e-05
-0.00101926332826992,0.000536322625656284,-1.70083012126323e-05,-6.74600810132282e-05
-0.00101630693771284,0.000544142755516932,-1.39415738343232e-05,-5.90367516956258e-05
-0.0010168433795478,0.000557041201415133,-1.3733485903216e-05,-4.58506304931806e-05
-0.001018297732967,0.000572061572793816,-1.35573334353515e-05,-3.01722489345125e-05
-0.00101541286798792,0.00058759454414812,-9.78462501290858e-06,-1.45856058321181e-05
-0.00100942856129578,0.00060142282256024,-3.4252946305457e-06,2.59984001905817e-07
-0.00100599533355208,0.000616538561376247,1.35858652038775e-06,1.48809324752801e-05
-0.00100530391963148,0.000630044974687396,3.18972562566712e-06,2.86773491065483e-05
-0.00100457674292187,0.000640702285808461,4.69931380326115e-06,3.98550879173152e-05
-0.00100277668254236,0.000648212471497802,7.91122854786204e-06,4.78045938265933e-05
-0.000999748766407297,0.000655639210679484,1.16375539374649e-05,5.42324986682807e-05
-0.00099807983625411,0.000661683122019954,1.44292566436024e-05,6.10787335089588e-05
-0.000996923506076545,0.000668478051929358,1.74505818489664e-05,6.80591175706277e-05
-0.000992250501647621,0.000673782865630559,2.26461795325814e-05,7.3092220854823e-05
-0.000986599980986117,0.00067543987485408,2.95227600746328e-05,7.45199803287304e-05
-0.0009822369207285,0.000672853033116641,3.53660842709328e-05,7.20238837307278e-05
-0.000981199799847591,0.000666606465971855,3.80908270556233e-05,6.61556193890679e-05
-0.000981712399823213,0.000659728089554792,3.81436784309958e-05,5.85526757746556e-05
-0.000983285962539074,0.000653326550324354,3.82549012186703e-05,5.24053640924164e-05
-0.000981497823089231,0.000651931801553476,4.15432347721163e-05,5.06898873021334e-05
-0.000975656567553077,0.00065420869911961,4.8631043490052e-05,5.28375910493958e-05
-0.000969815312016923,0.00065518621535219,5.61246779749633e-05,5.41661641218167e-05
-0.000967574177239786,0.00065181259225682,5.92385837751836e-05,4.98768437864439e-05
-0.00097205644679406,0.000641655960181711,5.65743540948547e-05,3.96064876642741e-05
-0.000979089795296776,0.000629377402626121,5.10475504468201e-05,2.76436324590922e-05
-0.000986230432166483,0.000620901621633865,4.55654197267514e-05,1.8919791188953e-05
-0.000992476999311268,0.000618135965951441,3.9609379740387e-05,1.50400852560733e-05
-0.00100296741741701,0.000616705454391566,3.13660907809218e-05,1.38506982750613e-05
-0.00101503139823862,0.000615072287027376,2.15628045050272e-05,1.2479904140362e-05
-0.00102304226297392,0.000614357031247439,1.31611431694846e-05,1.0660025524939e-05
-0.00102983719288332,0.000614905394012057,7.95883585825103e-06,1.06014909641875e-05
-0.00103548771354483,0.000617134607859528,5.11982968554274e-06,1.32901897201686e-05
-0.0010380983971416,0.000620889700704199,2.47885341343796e-06,1.60327025171344e-05
-0.00104348665735046,0.000620508230954899,-2.11884601117187e-06,1.51801322228491e-05
-0.00105322605688727,0.000616371668360929,-9.89102718183295e-06,1.05188241543504e-05
-0.00106395489358633,0.00061111453837839,-1.95899221759575e-05,4.65346865206256e-06
-0.00107234722807093,0.000605535543294879,-2.74072499614785e-05,-1.65434389302602e-06
-0.0010760307953376,0.000597369706473929,-3.05192684323095e-05,-1.01648723009581e-05
-0.00107752091154581,0.000588965451059666,-3.05939854240133e-05,-2.01074063849395e-05
-0.00107914215798033,0.000583267246679499,-3.15772741017102e-05,-2.61557708227554e-05
-0.00108149058112446,0.000585782562838945,-3.38502784629065e-05,-2.45247772310291e-05
-0.00108153826484312,0.000592815911341662,-3.31720142429518e-05,-1.87407729073443e-05
-0.00107527977676867,0.000596916711146635,-2.65164356035752e-05,-1.57465124840781e-05
-0.00106573111210651,0.000595986878632717,-1.666109423686e-05,-1.76253848910297e-05
-0.00105798250782386,0.000594365632198193,-9.02072956996081e-06,-2.08838423638161e-05
-0.00105423933590885,0.000592803990411996,-5.36651220314086e-06,-2.30621742843732e-05
-0.00105189091276472,0.000592267548577043,-2.94745793519316e-06,-2.58220817868598e-05
-0.00104792124318607,0.000588130985983073,8.00410386962557e-07,-3.12874007503601e-05
-0.0010426760341332,0.000580716167731057,5.11494203716639e-06,-3.94363492955436e-05
-0.00103982693194311,0.00057349208435369,7.88493118018024e-06,-4.99364643275961e-05
-0.00103839642038324,0.000561118159360776,8.62470512968005e-06,-6.22468369958418e-05
-0.00103743082508032,0.000554394755029366,7.81613084236295e-06,-7.20062089291561e-05
-0.0010419130946346,0.000556957754907474,4.10302056832005e-06,-7.15857565534732e-05
-0.00104902988964497,0.000571215186787557,-5.72861038382994e-06,-5.7972485681427e-05
-0.00106478935866292,0.000593972241519227,-2.28499859349629e-05,-3.79470469764454e-05
-0.00108585364138208,0.000612533129008599,-4.33111830683732e-05,-2.2225418992384e-05
-0.00109949118491955,0.000620746649548212,-6.05084674141389e-05,-1.58043296656075e-05
-0.00110849148681709,0.000621128119297512,-7.10896024178073e-05,-1.62590020028409e-05
-0.00111421353305659,0.00062186721693678,-7.70690556567692e-05,-1.90117476796202e-05
-0.00111578709577245,0.000624156035432579,-8.14687393991691e-05,-2.0582925276481e-05
-0.00111564404461646,0.000625801123726435,-8.38775190348353e-05,-1.85621075603445e-05
-0.00111262804941106,0.000633323230345442,-8.23928308600363e-05,-1.34412955049334e-05
-0.00110706097525722,0.000640916862542442,-7.81256154880358e-05,-1.07253679387963e-05
-0.00109901434773292,0.000636708774370478,-7.38677713780302e-05,-1.6699089402792e-05
-0.00109152800390291,0.00062273744480237,-6.85502895680672e-05,-3.0481887751759e-05
-0.00107964283702629,0.000613927877779476,-5.79250730344159e-05,-4.36398466006835e-05
-0.00106112963325558,0.000611591375565015,-4.25641364106759e-05,-4.95603011608577e-05
-0.00104522711308164,0.000611937082525318,-2.99445737791715e-05,-5.02662173282627e-05
-0.00103716856462768,0.000611531770916687,-2.39337334604597e-05,-5.14197646895419e-05
-0.00102790600227749,0.000614118612654126,-1.61502815405795e-05,-5.29823884669212e-05
-0.00100245481744139,0.000622344054123405,4.9677377791533e-06,-4.84689826616419e-05
-0.000967490730732127,0.00063703063947145,3.71371287587647e-05,-3.29401782297899e-05
-0.000940144118079192,0.0006634354986808,6.37022731609474e-05,-8.52366284139565e-06
-0.000927686746578619,0.000695669692496639,7.23172942035483e-05,1.86244216986739e-05
-0.000928485448866215,0.000721359295926052,6.79246913779305e-05,4.41750344461304e-05
-0.000931906755680248,0.000744628950633344,6.35301615467697e-05,6.67159334244182e-05
-0.000928235109343237,0.000765419051970187,6.39375567624516e-05,8.47088589679383e-05
-0.000924909169966529,0.000778269814149726,6.46717321321219e-05,9.52881017741156e-05
-0.00092397933745261,0.000780701683801513,6.29081306642307e-05,9.69620048657271e-05
-0.000923347528180333,0.000776338623543896,6.11444606475561e-05,9.20322175832524e-05
-0.000922703797978389,0.000771451042380991,6.02263842817465e-05,8.48540817138567e-05
-0.00092329984446167,0.000765419051970187,5.63829536706352e-05,7.79490207635693e-05
-0.000929617937184449,0.000759351298770386,4.79298401128409e-05,7.0857854715928e-05
-0.000936138685711544,0.00075117354101977,3.95160484246922e-05,6.25706403476524e-05
-0.000938189085614031,0.000743055387917482,3.60865663092053e-05,5.36009683089368e-05
-0.000935065802041638,0.000736093564992759,3.63181063295678e-05,4.52012740035753e-05
-0.000933694895130091,0.000728070779327797,3.5790170029621e-05,3.78776270635176e-05
-0.000934827383448325,0.000721907658690671,3.39400986986219e-05,3.16028006781207e-05
-0.000933015402139151,0.000717365784488069,3.37018038226917e-05,2.641143479839e-05
-0.000929677541832777,0.000712204021942855,3.56021783701466e-05,2.16167796663955e-05
-0.000927043016376675,0.000705516380400442,3.62143382895315e-05,1.5378952901377e-05
-0.000930655058065358,0.000696611445940223,3.2425347054639e-05,6.63654247492023e-06
-0.000938093718176706,0.000685977976678489,2.43165882758322e-05,-2.87015270688778e-06
-0.000945925768967019,0.000678813497949451,1.38373874689124e-05,-9.8618887351375e-06
-0.000956475791721093,0.000675368349276087,3.31792980420495e-06,-1.26239233834366e-05
-0.000964462814597059,0.000674474279551165,-4.55354050936236e-06,-1.1762967332833e-05
-0.000966966209826839,0.000676763098046964,-8.01641418568894e-06,-8.43782928449429e-06
-0.00096573835407128,0.000681126158304581,-8.3386342885766e-06,-3.48350341298874e-06
-0.000966858921459849,0.000685107748812899,-8.6653461471096e-06,1.87195599482275e-06
-0.000968778191136014,0.000686681311528761,-1.02939925023322e-05,6.19164274000993e-06
-0.000970172939906892,0.000688850920727904,-1.22338535628896e-05,9.03843998683669e-06
-0.000971746502622753,0.000689387362562857,-1.48962610169937e-05,1.06618608346855e-05
-0.000980043469670026,0.000686347525498123,-2.11978330054797e-05,1.05437790324866e-05
-0.000991046487751394,0.00068224672569315,-3.20582244989466e-05,8.05203286755158e-06
-0.00100150114306814,0.000676953832921614,-4.31367829274962e-05,4.7338378409569e-06
-0.00100793844508758,0.00067476038186314,-4.88571041724288e-05,3.78297970460029e-06
-0.00100930935199912,0.000674247781887518,-4.85017397587093e-05,6.25506454110781e-06
-0.00100638872423105,0.000675213377190434,-4.54769477267131e-05,9.53248029270871e-06
-0.00100227600349641,0.000674426595832502,-4.11353587231357e-05,1.05695944629892e-05
-0.000995552599164998,0.000671482126205094,-3.27440715724108e-05,9.00252144355693e-06
-0.000982511102110809,0.000664615670717696,-1.85902075044333e-05,5.91562098564329e-06
-0.000966703949374196,0.000657916108245618,-2.39221988278818e-06,1.39511244568123e-06
-0.000956666526595743,0.000650537052782598,9.45959938265444e-06,-4.87616395473943e-06
-0.000953090247696057,0.000640428104426152,1.3847356548358e-05,-1.19538183432414e-05
-0.000955534038277509,0.000630867518834324,1.2524704252852e-05,-1.85855628202769e-05
-0.000961232242657676,0.00062235597505307,8.93966456434626e-06,-2.50025419206518e-05
-0.00096544033082964,0.000613880194060814,5.53102846004308e-06,-3.19473835831547e-05
-0.00096802717256708,0.00060400966429768,3.70578611832803e-06,-3.86678310702953e-05
-0.000970745144530841,0.000596153771648036,4.08024586936415e-06,-4.37611668236212e-05
-0.000969183502744645,0.000590872799806166,5.7999875300935e-06,-4.74122987566323e-05
-0.000970113335258563,0.000585246121003993,6.85685586540013e-06,-5.08052732256623e-05
-0.000972533283980684,0.000579404865467838,5.95293783438977e-06,-5.37530459627629e-05
-0.000976526795418667,0.000575602088904505,3.47294019961149e-06,-5.51312219868562e-05
-0.000981438218440903,0.000573742423876668,4.13787561322254e-07,-5.5641062274191e-05
-0.000985801278698521,0.000568318400878811,-2.61079707204578e-06,-5.78429891602662e-05
-0.000989592134332188,0.000561606917477066,-4.94041572228571e-06,-6.28351042260574e-05
-0.000992429315592606,0.000553357634148457,-5.78244164923529e-06,-6.87167725273337e-05
-0.000993692934137162,0.000546932253058687,-5.50184566324587e-06,-7.30361839206194e-05
-0.000995838701476973,0.000542616876519732,-5.98512990031806e-06,-7.51402958059169e-05
-0.000999450743165656,0.00054036382081293,-8.60077056895675e-06,-7.52942931943023e-05
-0.00100585228239609,0.000540900262647883,-1.24917972736953e-05,-7.29684512542694e-05
-0.00101065641705134,0.000544285806672919,-1.58237601934817e-05,-6.71680484831578e-05
-0.00101377970062373,0.000551486048190954,-1.78223372246284e-05,-5.76955966181148e-05
-0.00101580625866689,0.000563001666247944,-1.84486642673345e-05,-4.54120611671326e-05
-0.00101752287253874,0.000573515926213022,-1.72201973170149e-05,-3.19348727896803e-05
-0.00101473337499698,0.000584197079193418,-1.42025277873342e-05,-1.92614076399846e-05
-0.00101391083085005,0.000593614613629258,-1.13995893291054e-05,-8.44542627228544e-06
-0.00101481682150464,0.000602972543416771,-1.08645615451231e-05,1.91717189537972e-06
-0.00101773744927272,0.000612282789485621,-1.15598899665586e-05,1.4743887847228e-05
-0.00101726061208609,0.000628078021292568,-1.0426908301917e-05,3.1299518461536e-05
-0.00101550823542525,0.000645208397222066,-6.93322883822956e-06,4.97599169986762e-05
-0.00101449495640367,0.000660729447646704,-4.24614632628614e-06,6.71313111752926e-05
-0.00101674801211047,0.000672924558694634,-4.95658038749376e-06,8.13490223013049e-05
-0.00102069383982979,0.000681400339686891,-7.56211068701138e-06,9.13072681951036e-05
-0.00102250582113897,0.000686478655724445,-8.34904778482762e-06,9.68377499491979e-05
-0.00102143293746906,0.000687289278941708,-5.2253958793421e-06,9.98305025516527e-05
-0.00101611620283819,0.000689494650929847,1.35140481845151e-06,0.000103704716202012
-0.00100905901247615,0.000695264380888008,9.69298580197563e-06,0.000110104530899515
-0.00100190645467677,0.000701093715494497,1.78907569220592e-05,0.000117080094548616
-0.000996720850272229,0.000704455417660202,2.47655638145455e-05,0.000121783521131569
-0.000992405473733274,0.000705277961807129,3.07619380311493e-05,0.000123703901931618
-0.000987601339078029,0.000703907054895583,3.65632856934934e-05,0.000123660351718351
-0.000983929692741018,0.000701582473610787,4.03476429478506e-05,0.000120925122202573
-0.000988590776240276,0.00069261793450224,3.891426179658e-05,0.000113692210086666
-0.000995218813134361,0.000679802935111698,3.2978726801707e-05,0.000101938150749564
-0.000999808371055625,0.000665795842754593,2.84663044588059e-05,8.75947381960713e-05
-0.00100021368266426,0.000649476090042358,2.9627136518003e-05,7.18278876866873e-05
-0.000999283850150338,0.000631010569990311,3.29208461537257e-05,5.41160958473896e-05
-0.0010015845895758,0.000611090696519059,3.13593864871415e-05,3.44637846818963e-05
-0.0010081053381029,0.000591683423023428,2.38112124120204e-05,1.49187748469196e-05
-0.00101902490967661,0.000575161014506877,1.60255375938969e-05,-1.88186643065139e-06
-0.00102438932802614,0.000561940703507704,1.24801785105727e-05,-1.49149533263249e-05
-0.00102448469546346,0.000551378759823964,1.11932611365447e-05,-2.5394596962071e-05
-0.00102876430921342,0.000541794332372804,7.77485689813115e-06,-3.59880620890113e-05
-0.00103824144829759,0.000529158146927246,1.2661599300796e-06,-4.91610648303957e-05
-0.00104579931770559,0.000513744384869598,-6.17040155943334e-06,-6.51554935204501e-05
-0.00105212933135804,0.000497484236805691,-1.32529428572161e-05,-8.16902152988724e-05
-0.00106166607509053,0.000484132795580196,-2.0891529701775e-05,-9.66068459391833e-05
-0.00107200152111063,0.000472164182195913,-3.00494936847813e-05,-0.000110202327339429
-0.00108195549738142,0.000459122685141723,-3.96138988537229e-05,-0.000123374578974006
-0.00108809477615921,0.000450205829751839,-4.64203289958537e-05,-0.00013406688815749
-0.00109072930161532,0.000448143508919687,-4.74708542164143e-05,-0.000138110400675641
-0.00108685499947399,0.000453400638902225,-4.28452762796036e-05,-0.000134353979638522
-0.00107998854398659,0.00046223404778445,-3.60645355583964e-05,-0.000127126244843914
-0.00107436186518442,0.000468719033522548,-3.05016480144096e-05,-0.000122562673101261
-0.00107011801422346,0.000470042256715432,-2.61626177252676e-05,-0.000123435617706922
-0.00106735235854103,0.000468301800984251,-2.16548181492517e-05,-0.000127662250182133
-0.00106247669830779,0.000468337563773248,-1.81000894071503e-05,-0.000130118085232998
-0.0010616422332312,0.000473856954208431,-1.77467743253118e-05,-0.000125499543348384
-0.00106378800057101,0.0004916906649882,-1.85872144415762e-05,-0.000111635127418372
-0.00105879313104112,0.000515544445249107,-1.41752153615574e-05,-9.14403159850447e-05
-0.00104470259217635,0.000536787541913244,-7.63871194046693e-07,-7.03661884460136e-05
-0.00102605825817932,0.000559437308277923,1.7650387407665e-05,-5.09855242597181e-05
-0.00101050144496569,0.000584554707083387,3.29862956204464e-05,-3.13559846607499e-05
-0.00100351578018163,0.000607621705986363,3.98139514585807e-05,-9.09178645752885e-06
-0.00100456482199221,0.000633645095446413,3.750624184288e-05,1.5233727036734e-05
-0.00101245647743085,0.0006641984381794,2.89583130102281e-05,3.96464339004836e-05
-0.00102169519792171,0.000688564818415929,1.99357379276794e-05,6.25834490614252e-05
-0.00102192169558535,0.00070960525927575,1.73308814238234e-05,8.06677938006866e-05
-0.00101561552379224,0.00071978573321019,2.41542664558419e-05,8.75856532633935e-05
-0.0010019660593251,0.000715208096218592,3.62061569466419e-05,7.97059501147711e-05
-0.000990545808705438,0.000701224845720818,4.57990256501978e-05,6.24941006703243e-05
-0.000987875520460338,0.000689530413718844,4.84672465565483e-05,4.7616903301635e-05
-0.000990355073830788,0.000686407130146452,4.45644918835026e-05,4.28768078358077e-05
-0.000997054636302867,0.000695538562270317,3.57085254539388e-05,4.72709316985776e-05
-0.00100892788224983,0.000706863445452657,2.26562311636727e-05,5.57465353767274e-05
-0.0010244370117448,0.000717806858885697,6.63127826335673e-06,6.52589761176903e-05
-0.00103875404827321,0.000731146379181527,-1.00655421339407e-05,7.4759066879121e-05
-0.00105257040575566,0.000741398378693961,-2.5931049274782e-05,8.22138436531457e-05
-0.00106720930738505,0.000746047541263553,-4.12649208240796e-05,8.45167255513902e-05
-0.0010802269625799,0.000744223639024713,-5.62828776038779e-05,7.99245649652802e-05
-0.00109064585510766,0.000735414072001819,-6.90091707926651e-05,6.94947315897317e-05
-0.00109627253390983,0.000725853486409991,-7.60090496848796e-05,5.67101070915563e-05
-0.00109425789679634,0.000717413468206731,-7.54432489072907e-05,4.60246977641231e-05
-0.00108463770655618,0.000713503403276408,-6.93249917966558e-05,4.04279806815656e-05
-0.00107761627898313,0.000713694138151058,-6.22518680307489e-05,3.9598060144316e-05
-0.00106979614912249,0.000718808216977609,-5.71179589740609e-05,4.13056906483864e-05
-0.00106180912624652,0.00072411303067881,-5.2369212519527e-05,4.47601698047163e-05
-0.00105364328942557,0.000729608579254662,-4.46675378376258e-05,5.09149581279008e-05
-0.00104075676445703,0.00074042086246138,-3.37176024172055e-05,5.89692431283003e-05
-0.00102615362561665,0.000748372122548349,-2.20964480784249e-05,6.46460937600055e-05
-0.00101206308675188,0.000746727034254493,-1.02454608223215e-05,6.33997658606404e-05
-0.000996244013085604,0.000738394304418224,4.81872263625772e-06,5.41590836947613e-05
-0.000974977074562137,0.000724923653896073,2.391423721208e-05,3.91135441591397e-05
-0.000953650531390341,0.00070835356166086,4.20123691626881e-05,2.16813403158977e-05
-0.00094124084360843,0.000692534487994581,5.32977351352066e-05,6.02188889333141e-06
-0.000935399588072275,0.000683367293081718,5.76112592307063e-05,-3.73399857701488e-06
-0.000932741220756842,0.000680577795539963,5.82009178428868e-05,-6.64455624887006e-06
-0.00093337303002912,0.000681746046647194,5.50615040673049e-05,-6.67339631624532e-06
-0.000941360052905086,0.000678336660762826,4.56472799200147e-05,-8.96813317020141e-06
-0.000953769740686997,0.000672638456382659,3.21238154383129e-05,-1.47355859549031e-05
-0.000961256084517007,0.000665986577629243,2.24693574588142e-05,-2.15169035514645e-05
-0.000960099754339442,0.000660002270937101,2.18040512959695e-05,-2.75783829280003e-05
-0.000954604205763591,0.000653028527082713,2.58409525505305e-05,-3.33752591233569e-05
-0.000953805503475994,0.000647258797124553,2.5640074079683e-05,-3.89437806828863e-05
-0.000960981903134698,0.000642812290359276,1.69857718305044e-05,-4.29408858961866e-05
-0.000973177014182628,0.000639677085857218,2.97074252439481e-06,-4.52435780545196e-05
-0.000985848962417183,0.000637078323190112,-1.07937255336262e-05,-4.80282933682626e-05
-0.000995016157330046,0.000629639663078765,-2.06372660189507e-05,-5.26617486440269e-05
-0.000998640119948394,0.000625968016741754,-2.51811230470063e-05,-5.71385002289957e-05
-0.000995791017758311,0.00062407258892492,-2.42692074193356e-05,-5.83072787029263e-05
-0.000990283548252794,0.00062437061216656,-1.89794614948685e-05,-5.57863107237147e-05
-0.000982391892814153,0.000627434291090625,-1.18079652975004e-05,-5.23501347361526e-05
-0.000975990353583714,0.00062752965852795,-5.56533661433745e-06,-5.10224695181847e-05
-0.000969886837594917,0.000625741519078107,-1.49610029993677e-06,-5.27418407128111e-05
-0.000967371521435471,0.000619757212385965,1.50634850703851e-06,-5.61317995592469e-05
-0.000963378009997488,0.000616669691602569,5.4462551662516e-06,-5.83920904769963e-05
-0.000957155284712033,0.000617861784569131,1.08639621920657e-05,-5.6898769285132e-05
-0.000951218661738554,0.000622141398319089,1.64365646874797e-05,-5.11119688505828e-05
-0.000946474131731637,0.000628459491041868,2.1077027736765e-05,-4.28388453871835e-05
-0.000942909773761616,0.000636565723214491,2.53459512362762e-05,-3.40083348567027e-05
-0.000938129480965702,0.000645029583277081,2.99037123444345e-05,-2.47993434578612e-05
-0.00093356376490377,0.000653314629394688,3.34879227040638e-05,-1.49726932167094e-05
-0.000935125406689966,0.000660049954655764,3.37006877220088e-05,-6.34675712630833e-06
-0.000939369257650927,0.000663685838203778,2.93418391442519e-05,-2.06934872578976e-06
-0.000947260913089568,0.000662040749909922,2.11513756792494e-05,-2.93376645828189e-06
-0.000958275852100602,0.000657117405958021,1.13669312909021e-05,-5.72906090724148e-06
-0.000965881405227268,0.000655579606031156,3.83195067370453e-06,-6.14379766645564e-06
-0.000967598019099117,0.000657951871034614,2.86901814146625e-06,-2.69702171783104e-06
-0.000962114391452932,0.000662636796393203,9.20230948686383e-06,2.73408612378363e-06
-0.000953984317420978,0.000665116349763653,1.73154785231151e-05,7.46930573943685e-06
-0.000953340587219035,0.000666344205519212,1.9622542201833e-05,1.02424738212296e-05
-0.000958728847427895,0.000668454210070026,1.39211890912161e-05,1.15352530969976e-05
-0.000969696102720267,0.000665855447402921,5.01292110193971e-06,1.29630542126876e-05
-0.000975692330342074,0.00066909794027197,-1.06000481227037e-06,1.62646182193826e-05
-0.000977706967455564,0.000673902074927215,-2.37963017304819e-06,2.17699462018107e-05
-0.000978028832556536,0.00067688230734362,-9.61718909916668e-07,2.76286820693789e-05
-0.000977575837229242,0.000680065195564341,-1.36726677314892e-08,3.15144162795724e-05
-0.000980365334770997,0.000681161921093578,-2.18694593213529e-06,3.33676993934673e-05
-0.000987148343750736,0.00068023208857966,-8.1511160813102e-06,3.5316568846303e-05
-0.000996339380522929,0.000682568590794122,-1.55975730572034e-05,3.83252475347469e-05
-0.00100212103141076,0.000683510344237706,-2.11754377430303e-05,4.03627455982526e-05
-0.00100584036146643,0.000679779093252366,-2.40725393920678e-05,3.93648292675735e-05
-0.00100878483109384,0.000676441232945992,-2.60673966217444e-05,3.70222018204643e-05
-0.00101194387745523,0.000675785581814383,-2.79513465179925e-05,3.74042952900808e-05
-0.00101317173321079,0.000676989595710611,-2.85224294185254e-05,4.16554752658251e-05
-0.00101248031929018,0.000680983107148594,-2.78720942159896e-05,4.60548594462898e-05
-0.00101522213311327,0.000678253214255167,-2.86812881481121e-05,4.6269763388001e-05
-0.00101925140734025,0.000673592130755909,-3.25090210331899e-05,4.21496560013314e-05
-0.00102499729543908,0.000665819684613924,-3.72490497980151e-05,3.72153806207579e-05
-0.00102775103019184,0.000661170522044332,-4.02736528984496e-05,3.44550022836891e-05
-0.00103100544399056,0.000659334698875826,-4.18620429048719e-05,3.38776591178192e-05
-0.00103293663459639,0.000656998196661365,-4.30824065143233e-05,3.35377515790004e-05
-0.0010316491741925,0.00065191988062381,-4.20555440505277e-05,3.16439254736481e-05
-0.00102472311405677,0.000647199192476224,-3.50989993919869e-05,2.78251475637684e-05
-0.00101304060298446,0.000640904941612777,-2.0809949242138e-05,2.32617411688695e-05
-0.00099260812953759,0.000633418597782767,-1.16842331682875e-06,1.94820078878568e-05
-0.000970113335258563,0.000629591979360102,2.01051499584716e-05,1.64880804467606e-05
-0.000954949912723894,0.000623416937793311,3.82674779739484e-05,1.25750741412277e-05
-0.000944984015523434,0.000614655054489079,4.8329519573275e-05,6.69417031270278e-06
-0.000943303164440582,0.000606656110683448,4.82050259689932e-05,1.67501525648393e-07
-0.000952386912845785,0.000598573720370157,4.06322267351703e-05,-5.26061808365797e-06
-0.000964653549471709,0.000591325795133459,2.96947565815369e-05,-1.05672646328641e-05
-0.000977420865143589,0.000580418144489416,1.63890679998966e-05,-1.88845201814781e-05
-0.000992012083054309,0.000566291842835655,3.88656416588949e-07,-3.14432385119371e-05
-0.00100979811011542,0.000549495252936795,-1.48564203472826e-05,-4.54023963165537e-05
-0.0010179520260067,0.000536346467515616,-2.29434546226895e-05,-5.63719681159785e-05
-0.00101511484474628,0.000528943570193265,-2.15086174157912e-05,-6.23421934474441e-05
-0.00101048952403602,0.000523591072773401,-1.55330373270037e-05,-6.47788124119962e-05
-0.00100742584511196,0.000519859821788062,-1.23581604509436e-05,-6.66913039169263e-05
-0.00101082331006666,0.000514292747634217,-1.53374443163319e-05,-7.00757140366947e-05
-0.00101872688643497,0.000508379966520069,-2.2937403521053e-05,-7.44486951312275e-05
-0.00102646356978795,0.000503051310959536,-3.12557265922505e-05,-7.72104163030794e-05
-0.00103182798813748,0.000502884417944218,-3.57271774501893e-05,-7.58822433713055e-05
-0.0010305047649446,0.000505971938727614,-3.2690251390468e-05,-7.05068959630112e-05
-0.00101835733761533,0.000512015850068083,-2.19325121794542e-05,-6.35682254472818e-05
-0.00100375419877495,0.000516057045224729,-7.1498764707404e-06,-5.72740997043498e-05
-0.000991416036571028,0.000519907505506724,7.45165210300909e-06,-5.12978519499934e-05
-0.000979113637156107,0.000527691872578375,2.01753476950093e-05,-4.34065516676386e-05
-0.000967776833044102,0.000537085565154884,3.06314559456577e-05,-3.17996102680893e-05
-0.000961852131000288,0.000550878080778008,3.74633412142163e-05,-1.6512700907988e-05
-0.000962591228639557,0.000567591224169208,3.9535715341685e-05,9.34493430362975e-07
-0.000963187275122838,0.000584852730325027,3.82825471590673e-05,1.87609128121142e-05
-0.000965797958719609,0.000600242650523344,3.61477192850774e-05,3.61506688710944e-05
-0.000970470963148532,0.000617718733413144,3.27915609460627e-05,5.3778937047673e-05
-0.000980246125474341,0.000636708774370478,2.53814068504478e-05,7.28862953103771e-05
-0.000992751180693578,0.000655698815327812,1.3178686033567e-05,9.33048484962044e-05
-0.00100634104051239,0.000674855749300465,-4.47885347128584e-07,0.000112436842165244
-0.00102036005379916,0.000688922446305898,-1.15527186563253e-05,0.000126577670184503
-0.00102963453707901,0.000696289580839251,-1.90525371194715e-05,0.000133322727365066
-0.00103394991361796,0.000693905394906127,-2.32920275626281e-05,0.000132554986988973
-0.00103591686701279,0.000688231032385291,-2.34873402455782e-05,0.000125380586314257
-0.00103406912291462,0.000677061121288605,-1.93171105511913e-05,0.000112844001106472
-0.00103005176961731,0.00065891746633753,-1.38196624550849e-05,9.61404575703321e-05
-0.00102922922547038,0.000641858615986026,-1.12625384497095e-05,7.76126569827541e-05
-0.00103030210914028,0.000626778639959016,-1.17271920783264e-05,6.03190029053384e-05
-0.00103309160668204,0.000611913240665987,-1.07438265817057e-05,4.56635632191275e-05
-0.00102864509991676,0.000599241292431432,-5.51498011614309e-06,3.164822736119e-05
-0.0010240197792065,0.000583660637358465,1.06866268489637e-06,1.44517464773014e-05
-0.00102187401186669,0.000563848052254203,4.70329781454722e-06,-7.75691655453506e-06
-0.00102374559782419,0.000539231332494696,6.18690652239495e-06,-3.29134994001124e-05
-0.00101950174686323,0.000517594845151594,1.09744321558259e-05,-5.70836126452068e-05
-0.00101008421242739,0.0004989028274359,2.26071651029508e-05,-7.77331921287363e-05
-0.000996780454920557,0.000484383135103174,3.86429500580712e-05,-9.45208702126892e-05
-0.000983047543945762,0.000474154977450071,5.32200163589968e-05,-0.000107459662592291
-0.000976526795418667,0.000468027619601942,6.22247181171701e-05,-0.00011537490939827
-0.000974440632727184,0.000469398526513489,6.58684805624718e-05,-0.000116786697867175
-0.000975143967577455,0.000477230577303802,6.73376971175825e-05,-0.000112398600244085
-0.000974607525742502,0.000486362009427667,6.90645285689349e-05,-0.000106250679405541
-0.000975084362929127,0.000490760832474281,6.98746844217154e-05,-0.000103138995635906
-0.000981438218440903,0.000494802027630927,6.65188469419843e-05,-0.000103847005569543
-0.000989258348301551,0.000498747855350247,5.86355188820584e-05,-0.000103759937026746
-0.000998985826908697,0.000505971938727614,5.06444757877078e-05,-9.77975369121668e-05
-0.00100346809646297,0.000522160561213527,4.71013626523936e-05,-8.59549029111618e-05
-0.00100542312892813,0.000540769132421561,4.76499599020607e-05,-7.1525491539468e-05
-0.00100302702206534,0.000560796294259804,4.88041628996245e-05,-5.46905320612382e-05
-0.00100450521734388,0.000585424934948977,4.91470878576792e-05,-3.26641896056983e-05
-0.0010050893428975,0.000614929235871389,4.93317970907086e-05,-7.89264859270961e-06
-0.00100724703116697,0.0006360769650982,4.77841464757557e-05,9.35487574861471e-06
-0.00101300484019547,0.00064154867181472,4.09712038248753e-05,1.18771229773009e-05
-0.0010262728349133,0.00063934329982658,2.9047632375421e-05,5.97322140702791e-06
-0.00103807455528227,0.000642490425258304,1.72112918378254e-05,4.49948082781834e-06
-0.00104453569916103,0.000651872196905148,8.9422861897568e-06,1.05014019746744e-05
-0.00105452543822083,0.000659179726790173,3.53001108720526e-07,1.49620819484909e-05
-0.00106971270261483,0.000661480466215638,-1.63687041061922e-05,1.20919988273388e-05
-0.0010966301617998,0.000661659280160623,-4.52953986805374e-05,9.29357739143335e-06
-0.00113594538783702,0.000672924558694634,-8.36854822701013e-05,1.73565970810581e-05
-0.00117452151623496,0.000696015399456942,-0.000124172398899447,3.62799159706864e-05
-0.00120576627288856,0.000720679802935112,-0.00015810460197712,5.70354120648655e-05
-0.00122590072309379,0.000740051313641746,-0.000179006353857817,7.40727241586145e-05
-0.00123142011352897,0.000758683726709111,-0.000185924810592734,8.88839224809193e-05
-0.00122710473699002,0.000775611446834293,-0.000183527374651718,0.000101778721808268
-0.0012174368630312,0.00078324084182029,-0.000177977341073731,0.000107270976202053
-0.00121135718890173,0.000779664562920604,-0.000172982586404282,0.000100413487174937
-0.00120611197984886,0.000765979335664471,-0.000168920762939349,8.36048184707225e-05
-0.00119570500825077,0.000749683424811567,-0.000162815467113905,6.41683901592825e-05
-0.00117776400910401,0.000734972997604191,-0.000148981510064469,4.74587794215798e-05
-0.00115252740100189,0.000724351449272123,-0.00012398055851081,3.45348873566044e-05
-0.00111763483987062,0.000718164486775666,-9.28280739912779e-05,2.45824175674267e-05
-0.00108643776693569,0.000711512608022249,-6.58518276558066e-05,1.68152008210196e-05
-0.00106365687034469,0.000706625026859345,-4.60677360814471e-05,1.04445690546087e-05
-0.00103819376457892,0.000704419654871205,-2.39640830352971e-05,4.84416524789061e-06
-0.0010023832918634,0.000701451343384465,1.01121178919985e-05,2.87677408557924e-07
-0.000956654605666077,0.000698602241194382,5.14492105684271e-05,-2.06593252202579e-06
-0.000916516835481932,0.00070317987818598,8.47546376789537e-05,-1.09392471507524e-06
-0.000902462059406165,0.000708615822113503,0.000100699157354303,3.15128582073197e-06
-0.000895786338793417,0.000713205380034767,0.00010262724721717,8.47177294608548e-06
-0.000894141250499561,0.000717246575191413,9.8071105312347e-05,1.07548496579114e-05
-0.000898110920078213,0.000714707417172635,9.11908101480519e-05,6.5908147666307e-06
-0.000904989296495276,0.000704085868840567,8.47769729322621e-05,-3.34024112687109e-06
-0.000902009064078871,0.000693643134453483,8.19730016644256e-05,-1.40795110195683e-05
-0.000896608882940345,0.00068763498590201,8.16503990715778e-05,-2.04160639356253e-05
-0.000901365333876928,0.000687778037057998,7.7230280493699e-05,-2.09518800182408e-05
-0.000910985524117084,0.000689864199749482,6.49997833400716e-05,-1.79937398768504e-05
-0.000920248086467271,0.00069223646475294,5.03624774574011e-05,-1.43489359652317e-05
-0.000927472169844637,0.000696253818050254,4.1394464928764e-05,-1.13169156024726e-05
-0.000927555616352297,0.000696897548252198,3.87721721481892e-05,-9.45091719575468e-06
-0.000928020532609256,0.000695753139004298,3.67419663013103e-05,-9.5794114047144e-06
-0.000929737146481105,0.000691390078746681,3.23761083274683e-05,-1.18457325545432e-05
-0.000929713304621774,0.000689768832312157,2.88711206247946e-05,-1.43160572482052e-05
-0.00092771058843795,0.000687766116128332,2.98481295694109e-05,-1.4227835474383e-05
-0.000923562104914314,0.00068782572077666,3.47863724213169e-05,-1.13639172969273e-05
-0.000912320668239633,0.000690269511358113,4.09761066480101e-05,-9.02119837572228e-06
-0.00090639596619582,0.000686812441755083,4.65466691468107e-05,-1.02400076014163e-05
-0.00090274816171814,0.000681555311772544,5.03244634855639e-05,-1.36531613454304e-05
-0.00090054278973,0.000677931349154195,5.1501740976833e-05,-1.47933418169636e-05
-0.000899648720005078,0.000680029432775344,5.0908276328456e-05,-1.15240864389334e-05
-0.000899422222341431,0.000682568590794122,5.02537843564009e-05,-6.44162537768636e-06
-0.000902402454757837,0.000683379214011384,4.85448025166616e-05,-3.58258075479013e-06
-0.000909113938159581,0.000679516832799723,4.18047602220472e-05,-4.62456101041198e-06
-0.000920331532974931,0.000673604051685575,2.92328644070542e-05,-8.98001441647215e-06
-0.000932312067288879,0.000664365331194718,1.81365979390874e-05,-1.54465919518888e-05
-0.000933802183497082,0.000654816666532556,1.86500486223964e-05,-2.22187456966298e-05
-0.000919449384179675,0.000648105183130812,3.22896730093397e-05,-2.69206196650749e-05
-0.000904452854660323,0.000644004383325838,4.84108600278494e-05,-2.83853695974877e-05
-0.000899922901387388,0.000642144718298001,5.42869725524377e-05,-2.72544437907656e-05
-0.000907874161474357,0.000643730201943529,4.7521089745546e-05,-2.36121308806074e-05
-0.000920736844583562,0.00064835552265379,3.63661867914752e-05,-1.60102055393351e-05
-0.000929248388364815,0.000657296219903005,2.87647217944286e-05,-4.83040261999075e-06
-0.000935220774127291,0.000664460698632043,2.43471258788778e-05,5.58182276471094e-06
-0.000944113787657844,0.00066814426589872,1.79762361529018e-05,1.13701631506668e-05
-0.00095574861501149,0.000668668786804008,7.82334555823154e-06,1.44626790491606e-05
-0.000967741070255105,0.000671291391330444,-3.00202142217604e-06,1.98389808963906e-05
-0.000979030190648448,0.000676512758523986,-1.13464585871472e-05,2.81111444063349e-05
-0.000986397325181802,0.000681316893179231,-1.72123585810698e-05,3.46846510162592e-05
-0.000993239938809868,0.000680577795539963,-2.18817130455884e-05,3.65170121234843e-05
-0.000998783171104382,0.00067696575385128,-2.54436943536941e-05,3.57875089476151e-05
-0.00100265747324571,0.00067380670748989,-2.73218964370519e-05,3.57002358185988e-05
-0.00100550657543579,0.000673723260982231,-2.79445519139237e-05,3.61822409294654e-05
-0.00100846296599287,0.000669431726302607,-2.9049000283885e-05,3.55833883422397e-05
-0.00101466184941899,0.000665092507904321,-3.28754572079436e-05,3.36973114177667e-05
-0.00102381712340219,0.000660276452319411,-4.07690338847212e-05,3.08830231481911e-05
-0.00103658443907407,0.000654625931657906,-5.1232324969611e-05,2.65341543992514e-05
-0.00104731327577312,0.000645411053026381,-5.96336409861374e-05,2.07827815219172e-05
-0.00105031735004886,0.000638711490554302,-6.19404710645613e-05,1.58948525952092e-05
-0.00105013853610388,0.000634706058186654,-5.93366887994257e-05,1.35213416532937e-05
-0.00104936367567561,0.000630641021170677,-5.7329391588945e-05,1.17677765353529e-05
-0.0010532856615356,0.000624501742392882,-5.94870972422796e-05,7.19414164371439e-06
-0.00105882889383011,0.000613355673155527,-6.38375775665963e-05,-1.09691037945687e-06
-0.00106256014481545,0.00060218576205884,-6.64569260729372e-05,-1.11620134575099e-05
-0.00106379992150068,0.000590634381212853,-6.65952294450975e-05,-2.11114960422616e-05
-0.00106521851213089,0.000579166446874526,-6.63666366121264e-05,-3.04519186583087e-05
-0.00106620794929313,0.000568366084597473,-6.6829028919379e-05,-3.91247704573602e-05
-0.0010662556330118,0.000559413466418592,-6.68667910674965e-05,-4.68964254849058e-05
-0.0010666371027611,0.00055187943886992,-6.56228443415048e-05,-5.35536571490403e-05
-0.00106598145162949,0.000543665918330307,-6.37349680341137e-05,-5.88234692968573e-05
-0.00106227404250348,0.000538802179026734,-6.15066064077871e-05,-6.27327527751239e-05
-0.00105907923335309,0.000533676179270517,-5.73489775731543e-05,-6.66376548937388e-05
-0.00105280882434898,0.000526714356345794,-4.92167542671326e-05,-7.2437858500539e-05
-0.00103937393661582,0.000517261059120957,-3.73648100162979e-05,-7.95424059546347e-05
-0.00102671390931093,0.000512015850068083,-2.50483884453472e-05,-8.4112575014315e-05
-0.00101940637942591,0.000511765510545105,-1.60585588614935e-05,-8.30147478011201e-05
-0.00101338630994477,0.000516605407989347,-1.12357620752385e-05,-7.73300313480573e-05
-0.00100975042639675,0.000521409542644593,-7.48219883158591e-06,-7.02599978885962e-05
-0.00100191837560644,0.00052846673300664,-6.52485407061472e-07,-6.29112228649628e-05
-0.000991785585390662,0.000535893472188322,1.0554824456097e-05,-5.42309407676218e-05
-0.000977230130268939,0.000545513662428478,2.38049280079051e-05,-4.37376119144614e-05
-0.000965547619196631,0.000555837187518906,3.55006054800752e-05,-3.14704737369522e-05
-0.000957667884687655,0.000571346317013879,4.28487022821171e-05,-1.59400878477394e-05
-0.000955534038277509,0.0005912423486258,4.4333045653605e-05,4.58731193291853e-06
-0.000960207042706432,0.000612604654586592,4.05371636334733e-05,2.82902724407537e-05
-0.000963938293691772,0.000634646453538326,3.51313406547818e-05,5.00295725941577e-05
-0.000966143665679912,0.000650835076024239,3.28193740420458e-05,6.65671465521173e-05
-0.000964391289019065,0.000662171880136244,3.47449541503052e-05,7.98121901876131e-05
-0.000962126312382597,0.000676035921337361,3.72941660753596e-05,9.39480559254755e-05
-0.00096122032172801,0.000692927878673546,3.67832904433275e-05,0.000110721559470762
-0.000964307842511406,0.000709760231361403,3.39185802867834e-05,0.000128222330302018
-0.000967121181912492,0.00072256330982228,3.20830972341539e-05,0.000142762424787478
-0.000966000614523924,0.000731813951242802,3.27111710166139e-05,0.00015091433301489
-0.000963819084395116,0.000731515928001161,3.44917123696026e-05,0.000150866277785959
-0.000962948856529525,0.000722801728415592,3.60848011442649e-05,0.00014314692341001
-0.000962948856529525,0.000709092659300128,3.71257809446778e-05,0.000129970611478729
-0.000962793884443872,0.000694358390233421,3.69189176239973e-05,0.000113552835006721
-0.00096592908894593,0.000675296823698093,3.4618653635355e-05,9.52708566914096e-05
-0.00097023254455522,0.00065537695022684,3.10328768314066e-05,7.61189846500825e-05
-0.000973844586243903,0.0006376028440954,2.83110380432892e-05,5.69846823669519e-05
-0.000976467190770339,0.000619888342612287,2.73570857863181e-05,3.83813957582234e-05
-0.000976467190770339,0.000601363217911912,2.69949902949327e-05,2.07009384839912e-05
-0.00097965007899106,0.000586223637236573,2.59058457614904e-05,4.61748417934781e-06
-0.000983095227664424,0.000573563609931684,2.39354575087498e-05,-9.65569773015943e-06
-0.000987017213524414,0.00056023601056552,2.13767873868068e-05,-2.31355628532563e-05
-0.000990867673806409,0.000547266039089324,1.86208676206502e-05,-3.66735793421552e-05
-0.00099394327366014,0.000536954434928562,1.68607623143046e-05,-4.89271957238866e-05
-0.000996518194467914,0.000529027016700924,1.74836282714107e-05,-5.75510840134686e-05
-0.000994694292229074,0.000525260002926588,2.01503891629761e-05,-6.2899448749108e-05
-0.000993299543458196,0.000520336658974687,2.29088210819566e-05,-6.87609085389644e-05
-0.000993883669011812,0.000512886077933674,2.48520702169095e-05,-7.82823398465063e-05
-0.000994074403886461,0.00050263407842124,2.72778296431542e-05,-9.03987168637021e-05
-0.000991237222626044,0.000492644339361449,3.13991100617589e-05,-0.000101548259934263
-0.000988328515787632,0.000486075907115692,3.61597691025455e-05,-0.000109955337583219
-0.000987613260007695,0.000482535391005003,3.93983694942258e-05,-0.000116592270255599
-0.00098896032505991,0.000478613405145014,4.03924391268052e-05,-0.00012209772316008
-0.000991213380766712,0.000477528600545442,4.02459525065558e-05,-0.000124348094230475
-0.000992667734185918,0.000485515623421408,4.00709872677287e-05,-0.000120050237935106
-0.000995743334039648,0.000499880343668481,3.93627893053285e-05,-0.000108404873562539
-0.00100188261281744,0.000517356426558281,3.60636957916131e-05,-9.23273695915091e-05
-0.00101131206818295,0.000536239179148625,2.82649972817562e-05,-7.55585500942048e-05
-0.00102419859315149,0.000557327303727108,1.61936830649238e-05,-5.91115186004197e-05
-0.00104032761098907,0.000576686893504077,2.1216959174653e-06,-4.1792520993732e-05
-0.00105854279151814,0.00059556964609442,-1.22409982520869e-05,-2.4275544094641e-05
-0.00107272869782023,0.000613188780140208,-2.71806318021677e-05,-1.05620225790561e-05
-0.00108904845053246,0.000623655356386623,-4.22974066534691e-05,-3.61673552783686e-06
-0.00110329396148288,0.000628888644509831,-5.3689653844615e-05,-1.02078698723923e-06
-0.00110812193799746,0.000633335151275107,-5.71007670823771e-05,2.04802878290107e-06
-0.00110458142188677,0.00064078573231612,-5.43145534011605e-05,5.60679186371626e-06
-0.00110496289163607,0.000643932857747844,-5.31180773468912e-05,4.02687661896442e-06
-0.0011121988959431,0.000634479560523007,-5.90457568833373e-05,-5.97970113903838e-06
-0.0011228800489235,0.000623953379628264,-6.94339629054254e-05,-1.91382027693248e-05
-0.00113093859737745,0.000621402300679821,-7.75574827826914e-05,-2.61292167212175e-05
-0.00113346583446657,0.000627744235261931,-8.03592688027159e-05,-2.32086836182832e-05
-0.00113317973215459,0.000636529960425494,-7.93752165067061e-05,-1.46832470068128e-05
-0.00112948424395825,0.000648415127302118,-7.57269133454184e-05,-6.23543100989912e-06
-0.00112038857462338,0.000660407582545732,-6.77006548392857e-05,1.32300395361607e-06
-0.00110414034748914,0.000671374837838104,-5.30913847338565e-05,1.09339487584869e-05
-0.00108314759034798,0.000686073344115814,-3.13188425796351e-05,2.46228922395851e-05
-0.00105434662427584,0.000707793277966575,-3.60058208448181e-06,4.20427989965756e-05
-0.00102179056535903,0.000730299993175268,2.59602610436156e-05,6.21961829964185e-05
-0.000997602999067485,0.000751817271221713,4.95018391291838e-05,8.37122813637452e-05
-0.000986158906588489,0.000775587604974962,5.95838864528405e-05,0.000102991769605335
-0.000987839757671342,0.000786972092805629,5.63161941063209e-05,0.000114454769589206
-0.000993168413231874,0.000789952325222035,4.76812941531363e-05,0.000114709884655516
-0.000998532831581404,0.000783073948804971,4.00980334604708e-05,0.000106258769650837
-0.00100719934744831,0.000773954437610771,3.02055645216567e-05,9.58573647917623e-05
-0.001025962890742,0.000767719791395652,8.84260831032304e-06,8.89357937069414e-05
-0.00105745798691857,0.000766754196092736,-2.73654284972952e-05,8.591919609358e-05
-0.00109939581748222,0.000765335605462527,-7.09159841740604e-05,8.34747757703275e-05
-0.00113613612271167,0.000760328815002967,-0.000109766231512161,7.8400334603304e-05
-0.00115824944724139,0.000753366992078244,-0.000136174599390697,7.04844919163561e-05
-0.0011672259072796,0.000746321722645862,-0.00014892183764891,6.25195989892479e-05
-0.00116603381431304,0.000741636797287273,-0.000150141621596031,5.73913228512882e-05
-0.00115551955434797,0.000738418146277556,-0.000142774730716007,5.4322861000131e-05
-0.00113855607143379,0.000732469602374411,-0.000129830073463574,4.87019504655043e-05
-0.00111743218406631,0.000722408337736627,-0.000112927384568121,3.73893357873605e-05
-0.00109268433408048,0.000707876724474235,-9.08806702367433e-05,2.3682634330264e-05
-0.00106059319142063,0.000697672408680463,-6.18044412390022e-05,1.41383063817617e-05
-0.00102158790955471,0.000693070929829534,-2.77643200129122e-05,9.79299202852545e-06
-0.000986218511236817,0.000686931651051739,4.30163343732978e-06,3.74228917268067e-06
-0.000958991107880539,0.000672447721508009,2.83374970428447e-05,-1.04700718008143e-05
-0.000938928183253299,0.000649464169112692,4.56495495125705e-05,-3.06843274066593e-05
-0.000915014798344064,0.000632274188534867,6.38928308966909e-05,-4.91571224499332e-05
-0.00088815694380742,0.000618529356630406,8.8699269849495e-05,-6.15204243427278e-05
-0.000857329419692124,0.000609171426842894,0.000116989405212361,-6.88752565316925e-05
-0.000829315234977915,0.000605392492138892,0.000139502369951764,-7.22381255595317e-05
-0.000817501593679285,0.000606906450206426,0.000149819886962758,-6.97959378128817e-05
-0.000814092207794917,0.000614213980091451,0.000149929416380484,-6.07948364000005e-05
-0.000813627291537958,0.000625085867946498,0.000146454938313552,-4.8517105392651e-05
-0.000815653849581113,0.000635170974443613,0.000142619558651537,-3.74210980037711e-05
-0.000819671202878428,0.000641894378775023,0.000135913711148578,-2.94396815097246e-05
-0.000828194667589347,0.00064470771817611,0.000123747828480007,-2.44393334491153e-05
-0.000841867973915814,0.000645971336720665,0.000108512464501944,-2.226447510331e-05
-0.000854134610541738,0.000644278564708147,9.45409838113873e-05,-2.27486876405642e-05
-0.000863564065907244,0.000639665164927552,8.17717640167134e-05,-2.51395440243644e-05
-0.000877547316405017,0.000634539165171335,6.63621409186991e-05,-2.87194154535432e-05
-0.000894856506279499,0.000629639663078765,4.78400290794043e-05,-3.28623147738053e-05
-0.000909614617205537,0.000624418295885223,3.14649866712344e-05,-3.60559948350988e-05
-0.000917542035433175,0.000621593035554471,2.12374970869914e-05,-3.67956952420758e-05
-0.000924515779287563,0.000621140040227177,1.3849131945813e-05,-3.61624653257853e-05
-0.00093492275088565,0.000619041956606028,3.15474307812618e-06,-3.71636532330396e-05
-0.000947248992159902,0.00061370138011583,-1.11179982068707e-05,-4.01118600251156e-05
-0.000958573875342242,0.000611197984886049,-2.2977135828933e-05,-4.08762079643369e-05
-0.000964152870425753,0.00061552528235467,-2.79816015460728e-05,-3.57380781452966e-05
-0.000963723716957791,0.000623261965707658,-2.79560728548074e-05,-2.64051008242454e-05
-0.000962531623991228,0.000628793277072506,-2.76397106408006e-05,-1.82142747280627e-05
-0.000965213833165993,0.000631678142051586,-2.96978741736265e-05,-1.46012569544873e-05
-0.000970923958475826,0.000629472770063446,-3.3887506521913e-05,-1.51831615403535e-05
-0.00097494131177314,0.000625085867946498,-3.87365099790366e-05,-1.79829810572768e-05
-0.000980103074318354,0.000619387663566331,-4.30120368652953e-05,-2.1204990790798e-05
-0.000986027776362167,0.000616550482305913,-4.70885175440277e-05,-2.33621702470157e-05
-0.000992703496974915,0.000614595449840751,-5.30833947971372e-05,-2.374830987439e-05
-0.00100243097558206,0.000612843073179905,-6.18242598813726e-05,-2.29929954939399e-05
-0.0010123015053452,0.000612187422048296,-6.99042457972118e-05,-2.23119761506438e-05
-0.00101634270050184,0.000610518491895109,-7.23370894391816e-05,-2.27030550879054e-05
-0.00101426845874002,0.000606155431637492,-6.833919207188e-05,-2.5190617359745e-05
-0.00100957161245177,0.000599062478486447,-6.17791188910569e-05,-2.99728761178716e-05
-0.00100500589638984,0.000593471562473271,-5.57346914708514e-05,-3.39869552821555e-05
-0.00100256210580838,0.000594961678681474,-4.99701489583914e-05,-3.15516489660016e-05
-0.000999021589697694,0.000603985822438349,-4.44369009302351e-05,-2.01539889050261e-05
-0.000997221529318185,0.000616478956727919,-4.11503495801088e-05,-4.44823506608606e-06
-0.00100063091520255,0.000629413165415118,-4.05007935005115e-05,8.25630909488391e-06
-0.00100153690585714,0.000634920634920635,-3.91617502056354e-05,1.59204664320921e-05
-0.000998425543214413,0.000638055839422693,-3.42168771414759e-05,2.27046507375293e-05
-0.000994944631752052,0.000646519699485284,-2.64467322309353e-05,3.25907370353627e-05
-0.00098838812043596,0.000659000912845189,-1.71400026094014e-05,4.50028374706139e-05
-0.000978004990697204,0.000666844884565168,-5.12296888414888e-06,5.68693685781591e-05
-0.000968384800457048,0.000673008005202294,9.58539109810978e-06,6.61571827577056e-05
-0.000957965907929296,0.000679957907197351,2.22731139297982e-05,7.24285334780381e-05
-0.000955271777824865,0.000680601637399294,2.80703337900399e-05,7.59945918000345e-05
-0.000958514270693914,0.000678646604934132,2.7956471342329e-05,7.76411480196217e-05
-0.000964939651783684,0.000677895586365198,2.60315755041548e-05,7.80469412855436e-05
-0.000970220623625554,0.000675809423673715,2.27867326191126e-05,7.71041032884108e-05
-0.000980746804520297,0.000670599977409838,1.60356633501824e-05,7.489233382221e-05
-0.000993120729513212,0.00066593889391058,7.25327722766726e-06,7.30155209030607e-05
-0.00100231176628541,0.000665104428833987,1.40207027404624e-06,7.3298639824549e-05
-0.0010061979893564,0.000665795842754593,3.63613253800825e-07,7.54291276475071e-05
-0.00100907093340581,0.000664901773029671,1.64868534508108e-06,7.78266102116517e-05
-0.00100893980317949,0.000665664712528271,4.14384720681362e-06,8.04572217001236e-05
-0.001006960928855,0.000668633024015011,9.90003975667414e-06,8.4196480217504e-05
-0.00100131040819349,0.000669634382106923,1.88766119280975e-05,8.74426040042235e-05
-0.000996053278210954,0.000665855447402921,2.71258187209128e-05,8.66331774178152e-05
-0.000992643892326587,0.000660431424405064,3.27309403303356e-05,8.1230905139593e-05
-0.0009905934924241,0.000652539768966423,3.91501472987534e-05,7.52948041978302e-05
-0.0009826183904778,0.000646960773882912,4.95607402035425e-05,7.23678061580164e-05
-0.000972664414207006,0.000645840206494344,6.15229713383077e-05,7.10740582970969e-05
-0.000966656265655533,0.000640249290481167,7.06894917267519e-05,6.7437167420128e-05
-0.000963544903012806,0.00063041452350703,7.68062882995356e-05,5.91548930783978e-05
-0.000960254726425095,0.000616538561376247,8.22392598055652e-05,4.53811570445467e-05
-0.000957202968430696,0.00059431794847953,8.67321417098666e-05,2.46312651974196e-05
-0.000959408340418836,0.000565183196376753,8.76073869078666e-05,-3.66667414716975e-06
-0.000964963493643015,0.000532662900248939,8.41023446959184e-05,-3.624693691684e-05
-0.000971984921216066,0.000500476390151762,7.82044739590046e-05,-6.7516072334543e-05
-0.000979888497584373,0.000473582772826122,7.20523375303622e-05,-9.40293862819022e-05
-0.000986766874001436,0.000452148941287335,6.74748969297551e-05,-0.000115554560430369
-0.000987160264680401,0.000436115290887075,6.68935397372076e-05,-0.000132326850139799
-0.000985968171713839,0.000423455263582186,7.06710349475493e-05,-0.000144086521000677
-0.000983691274147705,0.00041527750583157,7.33830546858054e-05,-0.000152283204532477
-0.000990057050589147,0.000410151506075353,6.65741180837178e-05,-0.000160462077677958
-0.00101169353793225,0.000398623967088697,4.70406942841213e-05,-0.000170605476708314
-0.0010384441041019,0.000388813041973891,2.03923195447421e-05,-0.000180389425753355
-0.00106304890293174,0.000386905693227392,-4.98637159057768e-06,-0.000185960737435827
-0.00108410126472123,0.000386309646744111,-2.61888314727134e-05,-0.000187138125436143
-0.00110626227296962,0.000384771846817246,-4.72456209196654e-05,-0.000188025778804545
-0.00113167769501672,0.000384199642193296,-7.39987031399147e-05,-0.000191445430619605
-0.00116505629808046,0.000384879135184236,-0.000108730931326589,-0.000193668411252719
-0.00120441920783634,0.000392103218561603,-0.000148360448067204,-0.000186609689315449
-0.00124149329909642,0.000413966203568351,-0.000185859694913317,-0.000166086766657682
-0.00126712329787751,0.000447118308968443,-0.00021386952180761,-0.000136510874341196
-0.00128147609719492,0.000479936628337897,-0.000229270513534978,-0.000105752703083878
-0.00128600605046785,0.000510287315266568,-0.000235407911020239,-7.6437514632302e-05
-0.0012873054318014,0.000544440778758572,-0.000238597867709241,-4.50114244954132e-05
-0.00128779418991769,0.000583326851327828,-0.000240826207554107,-9.13972226568526e-06
-0.00128121383674227,0.000622510947138724,-0.000236280930903405,2.78673944385733e-05
-0.00125823028434695,0.000658559838447561,-0.000216771923859819,6.18440443523847e-05
-0.00122108466750888,0.000693059008899868,-0.00018073570303393,9.34537612277603e-05
-0.00117352015814305,0.000727474732844516,-0.000135302459434011,0.000125278036325097
-0.00112354762098477,0.000759732768519686,-8.93984761393361e-05,0.000154968264186991
-0.00107829577197407,0.000783753441795912,-4.72457923202276e-05,0.000175775886218011
-0.00103987461566178,0.000793361711106402,-9.26199628921287e-06,0.000184217245661134
-0.00100133425005282,0.000796330022593142,2.47299898502122e-05,0.0001835611485319
-0.000965678749422952,0.000794911431962933,5.68615840973977e-05,0.000178546399695834
-0.0009275198535633,0.000786578702126664,9.27994668211843e-05,0.00016973749174259
-0.000881207041812363,0.000775420711959643,0.000135902932062117,0.000155140340920668
-0.000836014797449994,0.000758814856935433,0.000179330515501487,0.000135349236516394
-0.000800120878226809,0.000740182443868067,0.000208949931410131,0.000114809881668438
-0.000791919278616862,0.000726091905003304,0.00021604920724635,9.8905995851689e-05
-0.000802147436269965,0.000721502347082039,0.000203963059535584,9.12912134224735e-05
-0.000819551993581771,0.000725042863192729,0.000181318825324673,9.27296045306488e-05
-0.000844705155176232,0.000734686895292216,0.000153361945876279,0.000100063599925531
-0.000873637251474693,0.000742411657715539,0.000122306991664784,0.000106331570219411
-0.000901961380360209,0.000742745443746176,9.1459983049724e-05,0.000104164922654844
-0.000925409849012485,0.000731062932673867,6.41159450742686e-05,9.06944699718567e-05
-0.000946295317786653,0.000711941761490211,4.03694317303862e-05,6.93166041993251e-05
-0.000966060219172252,0.000689756911382491,1.90524054195285e-05,4.67359368521694e-05
-0.000980341492911666,0.00067476038186314,1.7186285205994e-06,2.85068570357769e-05
-0.000988352357646963,0.000663566628907122,-8.53169200331576e-06,1.68477013196579e-05
-0.000987970887897664,0.000659823456992117,-1.11767786302189e-05,1.13246258929965e-05
-0.000983917771811352,0.000660562554631385,-8.51107299373981e-06,1.04272230627502e-05
-0.000977003632605292,0.000662851373127185,-3.18689165989755e-06,1.21857097017377e-05
-0.000969314632970967,0.00066621307529289,1.70786940435875e-06,1.38536970407845e-05
-0.000967228470279483,0.000666165391574227,2.1470344126333e-06,1.20643476915318e-05
-0.000971996842145731,0.00065758232221498,-3.24489959641722e-06,4.02827277951564e-06
-0.000976586400066996,0.000643992462396172,-1.01292764383687e-05,-1.15332700501719e-05
-0.000978517590672826,0.000622487105279392,-1.28656529015164e-05,-3.46248426138944e-05
-0.000976061879161708,0.000592422520662696,-1.11377554942518e-05,-6.38525122475926e-05
-0.000971031246842816,0.000563287768559919,-8.16727600743224e-06,-9.47508879880395e-05
-0.000966596661007205,0.000539958509204299,-3.5568787272795e-06,-0.000119328921675432
-0.000957179126571365,0.000528645546951625,6.28592403160276e-06,-0.000130224891185981
-0.000940847452929464,0.000533115895576232,1.99216733358864e-05,-0.00012667808511576
-0.000932335909148211,0.000546288522856743,2.91466770806536e-05,-0.000115152349593398
-0.000933718736989423,0.000557768378124736,2.84969103115358e-05,-0.000103243928389829
-0.000939941462274877,0.000567007098615593,2.22538304064402e-05,-9.42006452639739e-05
-0.000941824969162045,0.000575530563326512,1.88007088686024e-05,-8.77659222232595e-05
-0.00094028716923518,0.000579595600342488,2.14983221206324e-05,-8.36054707826067e-05
-0.000935626085735922,0.000581586395596647,2.84856017225374e-05,-8.1219480201345e-05
-0.000924658830443551,0.000586307083744233,3.80296496082125e-05,-7.79355972674435e-05
-0.000913488919346864,0.00059527162285278,4.9184186954634e-05,-7.05716133522945e-05
-0.000906479412703479,0.000604856050303939,5.86679728763697e-05,-5.97257479432754e-05
-0.00090457206395698,0.000615453756776676,6.19052034165108e-05,-4.99701496257145e-05
-0.000908184105645663,0.000622808970380364,5.75503558461378e-05,-4.46256200750829e-05
-0.000918936784204053,0.000625467337695797,4.79580627555284e-05,-4.18740626157277e-05
-0.000933992918371732,0.000630021132828065,3.52561408346962e-05,-3.70901524559483e-05
-0.000950837191989254,0.000640451946285483,1.99476940350704e-05,-2.79031800490499e-05
-0.000966441688921552,0.000653922596807635,3.46752148993478e-06,-1.60657223661983e-05
-0.000983905850881687,0.000664341489335387,-1.11817130833289e-05,-5.31747658294531e-06
-0.000996661245623901,0.000671315233189775,-2.25905705196466e-05,1.63632402562497e-06
-0.00100828415204788,0.000676333944579002,-3.25632309128204e-05,4.78971221243007e-06
-0.0010194421422149,0.000679349939784404,-4.33684831906881e-05,6.56749809868402e-06
-0.00103284126715906,0.000681328814108897,-5.48245345481947e-05,9.76439000706029e-06
-0.00104492908984,0.000688278716103954,-6.4918087432179e-05,1.53313217202342e-05
-0.00105358368477724,0.000697481673805813,-7.20818592276714e-05,2.23435773161463e-05
-0.0010582447682765,0.000703644794442939,-7.64103161989576e-05,2.97673026308702e-05
-0.00106406218195332,0.000711905998701215,-7.98913492312262e-05,3.70733807664283e-05
-0.00107167965600965,0.000719523472757546,-8.55084185468487e-05,4.31275511537447e-05
-0.00108094221835984,0.000722634835400273,-9.43016093168702e-05,4.63089169047046e-05
-0.00109161145041057,0.000722956700501245,-0.00010306734298581,4.66916760250722e-05
-0.00109723812921274,0.000724470658568779,-0.000107234816056772,4.66337173748555e-05
-0.00109797722685201,0.000725615067816679,-0.000106721987922582,4.78964400501506e-05
-0.00109949118491955,0.000726771397994244,-0.000106236592388533,4.93622912562317e-05
-0.00110201842200866,0.000727665467719165,-0.000108100395790663,4.90034062752426e-05
-0.00110262638942161,0.000725543542238685,-0.000107436508256874,4.68838843722582e-05
-0.0010950685200136,0.000722026867987327,-9.7500285510727e-05,4.43328837615459e-05
-0.00107650763252423,0.000719654602983868,-7.84265135175891e-05,4.10911511877089e-05
-0.00105665928463097,0.000714349789282667,-5.74766713110738e-05,3.56410174228931e-05
-0.0010418773318456,0.000705456775752114,-4.08076290006753e-05,2.81154258647809e-05
-0.00102955109057135,0.000697875064484779,-2.75915114919982e-05,2.05684462987386e-05
-0.00101597315168221,0.000691604655480662,-1.24277203503965e-05,1.42079653559649e-05
-0.000995516836376002,0.000684535544188949,8.53677927859886e-06,8.63408669784007e-06
-0.000971829949130413,0.000679564516518385,3.39160045704135e-05,4.26523540901947e-06
-0.000949728545530352,0.000677382986389576,5.7518675259108e-05,3.01296851566596e-06
-0.000934600885784679,0.000678277056114498,7.27767882915412e-05,5.22554443920726e-06
-0.000930380876683049,0.000679922144408354,7.91409704386708e-05,7.90512901252489e-06
-0.000926220472229747,0.000677883665435533,8.37791272466026e-05,7.65396551800136e-06
-0.000917184407543207,0.00067274574474965,9.40072749344709e-05,4.19446749439645e-06
-0.000904786640690961,0.000666475335745533,0.000108130007258437,-3.19884560363338e-07
-0.00089536910625512,0.000661063233677342,0.000117356544573432,-4.13882312108167e-06
-0.000897789054977241,0.00065575841997614,0.000117044342252524,-6.62768895354499e-06
-0.000904607826745977,0.000652408638740101,0.000111317337120834,-7.64461642098124e-06
-0.000910830552031431,0.000650084057455305,0.000104938924170621,-8.2461817031982e-06
-0.000922107751495108,0.000643885174029182,9.61783747076438e-05,-1.10006048166296e-05
-0.000936329420586194,0.000635111369795285,8.19204981439702e-05,-1.72870263895364e-05
-0.000954341945310947,0.000624525584252213,6.5307355962949e-05,-2.46346091076571e-05
-0.00096840864231638,0.000617516077608828,5.22073863327071e-05,-2.87963794556924e-05
-0.00097897058600012,0.00061495307773072,4.24581403505033e-05,-2.83014218759801e-05
-0.000991427957500694,0.000614035166146467,3.09667085712871e-05,-2.50588814792301e-05
-0.00100690132420667,0.000615406073058013,1.66963649458457e-05,-2.07699311447245e-05
-0.00101960903523022,0.000617277659015516,4.42618250291927e-06,-1.51585355798173e-05
-0.00102769142554351,0.000620639361181221,-2.57219146812693e-06,-8.05859859103942e-06
-0.00103160149047384,0.000623989142417261,-5.59841708431251e-06,-8.00574835027156e-07
-0.00103242403462076,0.000626206435335066,-5.47168872216724e-06,5.51869311148234e-06
-0.0010281801836598,0.000628197230589225,-8.43062496703494e-07,1.1353951422762e-05
-0.00102177864442936,0.000630962886271649,6.16483731614393e-06,1.73667071695607e-05
-0.00102069383982979,0.00063136819788028,8.82311429491293e-06,2.33969489367954e-05
-0.00102534300239938,0.000634181537281366,4.30525795206768e-06,2.95738003605949e-05
-0.00103079086725657,0.000637722053392056,-1.41153104201574e-06,3.65342514402062e-05
-0.00103251940205809,0.000639545955630896,-1.62595835073052e-06,4.33381767028934e-05
-0.0010304690021556,0.000638914146358618,1.79682855424102e-06,4.7084462506651e-05
-0.00102852589062011,0.000634920634920635,1.80783164136475e-06,4.63573396752177e-05
-0.00103589302515346,0.000627899207347584,-4.12652365872672e-06,4.36107445598863e-05
-0.0010453463223783,0.000622463263420061,-1.23750702757121e-05,4.22302626443548e-05
-0.00105123526163311,0.000618112124092109,-1.87627022519399e-05,4.22467825647847e-05
-0.00105264193133366,0.000613689459186164,-2.11135881873673e-05,4.07507316117544e-05
-0.00105060345236084,0.000604605710780961,-1.82848701371344e-05,3.57320475396183e-05
-0.00104563242469027,0.000592768227622999,-1.18480701304582e-05,2.78682960009422e-05
-0.00103914743895217,0.000581514870018653,-7.59150587702899e-06,1.93523458452536e-05
-0.00104151970395563,0.000571000610053576,-1.05287417123043e-05,1.25932791537988e-05
-0.00105177170346807,0.000564301047581497,-1.92439611680496e-05,9.16909882781345e-06
-0.00106154686579388,0.000561225447727766,-2.95728741041115e-05,8.25456973345496e-06
-0.00107183462809531,0.000556480917720849,-4.22160614019572e-05,6.86229435463741e-06
-0.00108999020397605,0.000550019773842083,-6.0813642315583e-05,3.3240697314798e-06
-0.00111490494697719,0.000544285806672919,-8.32642928128485e-05,-5.52744723901057e-07
-0.00112907893234962,0.000540864499858886,-0.000101911830496387,-2.68875246788512e-06
-0.00114049918296928,0.000535631211735678,-0.000113402450669911,-4.52415132140126e-06
-0.00114890343838355,0.000529539616676546,-0.000121618856095104,-8.75871344927753e-06
-0.00115431554045174,0.000524270565764342,-0.000128388992456611,-1.45554988567868e-05
-0.00115078694527071,0.000518333942790862,-0.000127579425706536,-1.86175824274451e-05
-0.00113618380643033,0.000513529808135617,-0.000112499427995587,-2.04813763716021e-05
-0.00110635764040694,0.000512933761652336,-8.47852023856887e-05,-2.2707625259876e-05
-0.00107249027922692,0.000509297878104322,-5.23513394524927e-05,-2.57355578737352e-05
-0.00104169851790062,0.000507366687498491,-2.26915681637599e-05,-2.70905102423315e-05
-0.00101860767713831,0.000506806403804207,-1.77391234468242e-06,-2.6894627174352e-05
-0.00101017957986472,0.000505280524807008,5.40525752477005e-06,-2.96506803916443e-05
-0.00101487642615297,0.000498545199545932,-6.35584344904579e-07,-3.82559945734877e-05
-0.00102274423973228,0.000486016302467364,-1.0728510801319e-05,-5.01630412223823e-05
-0.00102330452342656,0.000474190740239068,-1.35756711468391e-05,-6.21749901628096e-05
-0.00101441150989601,0.000464856652310887,-4.79674988345477e-06,-7.50456522485715e-05
-0.000992929994638562,0.000452673462192623,1.31563738700164e-05,-8.94187848041411e-05
-0.000967967567918752,0.000440406825566699,3.6882842921027e-05,-0.000100610035846286
-0.000940501745969161,0.00044168236504092,6.29808479312815e-05,-0.000102771141051388
-0.000914919430906739,0.000451827076186363,8.56280256214513e-05,-9.69221857185281e-05
-0.000900244766488359,0.000459134606071389,9.953028262977e-05,-8.99086314868593e-05
-0.000892150455245403,0.000466418294097083,0.000105230127510025,-8.55617147649616e-05
-0.000888431125189729,0.000474488763480709,0.000106722703730183,-8.12646527577963e-05
-0.000889802032101275,0.00048469307927448,0.000104377500219057,-7.37838682534686e-05
-0.000896549278292017,0.000497889548414323,9.55291564475282e-05,-6.44797196953101e-05
-0.000908207947504994,0.000507473975865482,8.1797044952552e-05,-5.71861911502801e-05
-0.000919032151641378,0.000514972240625157,6.94041875408896e-05,-5.35850545472357e-05
-0.000926530416401053,0.000521290333347936,6.07068518111021e-05,-5.20056117668839e-05
-0.000934004839301398,0.000527668030719044,5.14663640911855e-05,-4.88283973938981e-05
-0.000943994578361188,0.000539326699932021,3.93539638530622e-05,-4.01268740235564e-05
-0.000952827987243413,0.00056080821518947,2.95991897730294e-05,-2.3713283484724e-05
-0.000953686294179338,0.000588130985983073,2.77669110971814e-05,-6.8872505092054e-07
-0.000948810633946099,0.000617957152006456,3.08326405286073e-05,2.56390559965203e-05
-0.000947511252612546,0.000648093262201146,3.03136459016207e-05,5.19091075695412e-05
-0.000956010875464134,0.000675046484175115,2.19281005808865e-05,7.45435852184424e-05
-0.000968825874854676,0.000695443194832992,7.75853744761441e-06,8.90946737758658e-05
-0.000984156190404665,0.000701141399213159,-9.13191681445955e-06,9.34398109504665e-05
-0.0010012388826155,0.000705230278088467,-2.70164337530226e-05,9.19551131090993e-05
-0.00101720100743777,0.000711584133600243,-4.27550454630637e-05,9.2940765506126e-05
-0.00102477079777544,0.00072016720295949,-5.16345158688196e-05,0.000100100812204221
-0.00102375751875386,0.000734424634839573,-5.16560530894613e-05,0.000108673626731158
-0.00101768976555406,0.000741708322865267,-4.54042074569103e-05,0.00011141297330938
-0.00100853449157086,0.000738740011378527,-3.66165476331433e-05,0.000106614027441334
-0.000998699724596722,0.000735843225469781,-2.70161275042595e-05,9.89097671451685e-05
-0.000988173543701979,0.00073571209524346,-1.73828770931556e-05,9.36170297974661e-05
-0.0009807110417313,0.000734424634839573,-9.57950413340466e-06,9.14910442499869e-05
-0.000977730809314895,0.000735473676650147,-5.73001483331735e-06,8.80819361669678e-05
-0.000976514874489002,0.000730192704808277,-5.91195498640071e-06,7.79146807212436e-05
-0.000978815613914467,0.000714147133478351,-7.45000212924775e-06,6.07074739284883e-05
-0.000978422223235501,0.000699996989965259,-6.43802650705927e-06,4.33291110384664e-05
-0.000972473679332356,0.000693929236765458,-4.99728463889092e-07,3.32149513669144e-05
-0.000963294563489828,0.000692474883346253,8.74660795029686e-06,2.95270821884213e-05
-0.000957059917274708,0.000688660185853254,1.60155876642226e-05,2.37786249954143e-05
-0.000956547317299087,0.000678086321239848,1.65238476763645e-05,1.02371405619619e-05
-0.000963521061153475,0.0006630540289315,1.04418735087182e-05,-7.46615701447394e-06
-0.000971758423552419,0.000650358238837614,2.61010979488739e-06,-2.18914247342752e-05
-0.00097752815351058,0.000642871895007604,-2.237602428342e-06,-3.07360405185332e-05
-0.000978732167406807,0.000639224090529924,-3.28571443649837e-06,-3.72607836121715e-05
-0.000979435502257079,0.000633740462883738,-2.93016116653185e-06,-4.41200572256495e-05
-0.000981462060300234,0.000628542937549528,-3.55428355768711e-06,-5.04470050418339e-05
-0.000982892571860109,0.000625836886515432,-5.51768208537243e-06,-5.42901689547069e-05
-0.000986397325181802,0.000627386607371962,-7.5743870225892e-06,-5.49072730255581e-05
-0.000988709985536932,0.00063041452350703,-8.57720059228722e-06,-5.26873179914882e-05
-0.000989222585512554,0.000634324588437354,-8.73162387624885e-06,-4.87338644758845e-05
-0.000990271627323128,0.000640320816059161,-9.2205586393399e-06,-4.40088554923735e-05
-0.000992894231849565,0.000649046936574396,-1.07744589286231e-05,-3.7291029060345e-05
-0.000996780454920557,0.000659835377921783,-1.31991161267667e-05,-2.53917366225811e-05
-0.00100017791987526,0.000677514116615898,-1.63459754664459e-05,-7.97356780699154e-06
-0.00100486284523385,0.000695633929707642,-2.03984614011226e-05,8.93318813388991e-06
-0.00101007229149772,0.000705528301330107,-2.45231983849021e-05,1.75111690113347e-05
-0.00101358896574908,0.000701367896876806,-2.6456232950981e-05,1.62572074457589e-05
-0.00101175314258058,0.000697505515665145,-2.47268345442555e-05,1.0693488506285e-05
-0.00100821262646989,0.000693368953071174,-2.04863766717199e-05,5.92211763704933e-06
-0.0010050178173195,0.000688350241681948,-1.57831608437677e-05,1.6654395811448e-06
-0.00100088125472553,0.000680637400188291,-1.08102979761905e-05,-4.35791513558558e-06
-0.000994861185244392,0.000674915353948793,-4.53725405510734e-06,-1.1359478443971e-05
-0.000988543092521613,0.000669801275122242,2.43047575937887e-06,-1.63321710618772e-05
-0.000984799920606608,0.000666236917152221,7.49940252250874e-06,-1.85573942885724e-05
-0.000984621106661624,0.000662779847549191,8.68310783929647e-06,-2.08070145966746e-05
-0.00098675495307177,0.000658714810533214,6.29423628883744e-06,-2.58595099230005e-05
-0.000992024003983975,0.000650632420219923,2.32209573656281e-06,-3.29333087655071e-05
-0.000995802938687976,0.000644183197270822,-7.28447059121426e-07,-3.80317285391164e-05
-0.000997388422333504,0.000643861332169851,-1.29392366525057e-06,-3.78085151457289e-05
-0.000997304975825845,0.000648105183130812,-8.21868606417712e-07,-3.30626879449796e-05
-0.000999832212914956,0.00065306428987171,-3.2464285786646e-06,-2.79163076953006e-05
-0.00100797420787658,0.000653970280526297,-9.7506195500739e-06,-2.51619937494123e-05
-0.00101443535175534,0.000654816666532556,-1.49759497146683e-05,-2.3287689428142e-05
-0.001010739863559,0.000659441987242817,-1.21027326229978e-05,-1.90022033622706e-05
-0.00100137001284182,0.000665533582301949,-1.7024763173843e-06,-1.16089520254584e-05
-0.000993168413231874,0.000672137777336703,8.5183920724181e-06,-3.19492451533138e-06
-0.000988566934380945,0.000679683725815041,1.35467157425447e-05,4.67404199372387e-06
-0.000985288678722899,0.000686395209216786,1.60172447602845e-05,1.20728542449951e-05
-0.000983822404374027,0.000691819232214643,1.93520452382994e-05,1.8636257411531e-05
-0.000984227715982658,0.000694394153022418,2.09857931491861e-05,2.28466830698676e-05
-0.000987744390234017,0.000694787543701383,1.68253178502306e-05,2.40423146211152e-05
-0.000995791017758311,0.000693476241438165,9.0405606535322e-06,2.3089232076515e-05
-0.001003146231362,0.000688946288165229,3.93681090497649e-06,2.0333458680001e-05
-0.00100500589638984,0.000682044069888834,3.45011148537651e-06,1.49437757513609e-05
-0.0010039449336496,0.000673902074927215,3.89049848240067e-06,7.35415844574996e-06
-0.00100607878005974,0.000666070024136902,2.77660484478195e-06,4.26077852529777e-07
-0.00100957161245177,0.000660014191866767,1.85939605539258e-06,-3.3395760137489e-06
-0.00100897556596849,0.000658428708221239,2.54314703839199e-06,-4.42091585799436e-06
-0.00100933319385846,0.000656640568771396,2.98810219492227e-06,-4.81281197642073e-06
-0.00101162201235426,0.00065450672236125,1.85590236747438e-06,-5.22493982499737e-06
-0.00101362472853808,0.000653755703792316,1.37881910456047e-06,-5.11809966556987e-06
-0.00101245647743085,0.000652706661981741,3.98708965217831e-06,-4.4425430861404e-06
-0.0010088682776015,0.00065134767599986,8.06153257147088e-06,-3.87850835178778e-06
-0.00100799804973591,0.000650632420219923,9.54457400351282e-06,-4.01842919939741e-06
-0.00101388698899072,0.000647294559913549,6.59067092858774e-06,-5.29766624616697e-06
-0.00102015739799484,0.000642931499655932,8.3454350163234e-07,-7.79140602898031e-06
-0.0010262728349133,0.000639009513795943,-4.91888586781286e-06,-1.01114630440561e-05
-0.00103198296022314,0.000638437309171993,-8.67021422369762e-06,-9.76045043632947e-06
-0.00103473669497589,0.000639581718419893,-9.63303589997937e-06,-5.95593380944524e-06
-0.00103379494153231,0.000642871895007604,-8.06976782413115e-06,-1.0210544070662e-06
-0.00103148228117718,0.000644695797246444,-4.60244246027683e-06,2.52260866863758e-06
-0.00102770334647318,0.000645899811142672,6.36358158366199e-07,5.24792751287338e-06
-0.00102220779789733,0.000647723713381512,7.48004332563212e-06,9.59700638319562e-06
-0.00101648575165783,0.000652420559669766,1.4390838735722e-05,1.62942186319721e-05
-0.00101330286343711,0.000658237973346589,1.91263908309236e-05,2.3816822898056e-05
-0.00101072794262933,0.000663256684735816,2.12087248878144e-05,3.07383543778845e-05
-0.00101287370996915,0.000666379968308208,2.22198341249064e-05,3.65989472743688e-05
-0.00101284986810981,0.000668847600748992,2.30053441889074e-05,4.08029485535831e-05
-0.00101335054715577,0.000668263475195377,2.22861648800923e-05,4.26768592639503e-05
-0.00101772552834305,0.000666654149690518,1.92003409480017e-05,4.27354841771503e-05
-0.00102312570948158,0.000663566628907122,1.57885642008602e-05,4.2318893479099e-05
-0.00102419859315149,0.000660502949983057,1.53784784332042e-05,4.19213508612594e-05
-0.00101953750965223,0.00065834526171358,1.90536872706852e-05,4.11276035061272e-05
-0.00101588970517455,0.000653970280526297,2.46308405488449e-05,3.97348108619044e-05
-0.00101336246808544,0.000649738350495002,2.8521344522404e-05,3.72777497673866e-05
-0.00101310020763279,0.000641560592744386,2.80552603947799e-05,3.2013404213392e-05
-0.00101848846784165,0.000629699267727093,2.29554274574843e-05,2.2675059999365e-05
-0.00102639204420996,0.000617480314819831,1.53689201787346e-05,1.1200305370849e-05
-0.00103533274145918,0.000604033506157011,7.86851732314155e-06,1.28669314440471e-06
-0.00104089981561302,0.000593316590387618,1.08747178406537e-06,-6.18217971982375e-06
-0.0010471821455468,0.000585305725652321,-5.91721184523278e-06,-1.38821273009909e-05
-0.00105540758701608,0.000573432479705362,-1.31010724266437e-05,-2.35519517622756e-05
-0.00106067663792829,0.000559437308277923,-1.86439506205397e-05,-3.33346241191506e-05
-0.00106114155418524,0.000550866159848342,-2.0609363224622e-05,-4.0940295538041e-05
-0.00105752951249656,0.000543355974159001,-1.75138782115579e-05,-4.70085318636893e-05
-0.00104737288042145,0.000534844430377747,-7.55920444575775e-06,-5.31743896950749e-05
-0.00102956301150101,0.000526285202877832,9.35780495020727e-06,-5.8492412937849e-05
-0.00100971466360776,0.000523698361140392,2.76846835918845e-05,-6.0224290360196e-05
-0.000998210966480432,0.000525033505262941,3.77701336980724e-05,-5.7352639599295e-05
-0.00100070244078055,0.000529134305067915,3.42979926574443e-05,-5.12757662097636e-05
-0.00101323133785911,0.000534188779246138,2.12668576618564e-05,-4.36891496577294e-05
-0.00102455622104145,0.000540924104507214,6.18855814336725e-06,-3.57288384079462e-05
-0.0010388613366402,0.000547385248385981,-8.51007666243437e-06,-2.85565988983957e-05
-0.00105417973126052,0.000552272829548885,-2.5359312744375e-05,-2.25113808208577e-05
-0.0010711432141747,0.000555110010809303,-4.53205126595952e-05,-1.58703490441817e-05
-0.00108952528771909,0.000565087828939428,-6.57004741477649e-05,-6.80714436396972e-06
-0.00110660797992992,0.000574862991265237,-8.40741802387173e-05,3.14960390378209e-06
-0.00111931569095347,0.000578570400391245,-0.000100262837196538,1.00130364543499e-05
-0.00113065249506548,0.000580751930520053,-0.000113860172800418,1.26067313974054e-05
-0.00113816268075482,0.00058318380017184,-0.000123030229132561,1.48081678949768e-05
-0.00113811499703616,0.00058884624176301,-0.000126570477992244,2.10731511666688e-05
-0.0011331082065766,0.000597977673886876,-0.000124500118040027,3.13507722513267e-05
-0.00112320191402447,0.000607824361790679,-0.000116030990777443,4.20097230189889e-05
-0.00110267407314027,0.000616943872984879,-9.98493580603033e-05,5.00795479211674e-05
