BCL,BCC,BCL_Filtered,BCC_Filtered
-,-,-,-
-0.00015051365795813,-0.000473880796067762,1.03091019739511e-20,-4.05950173796704e-20
-0.000141549118849583,-0.000474607972777365,2.76159658226532e-06,-9.67614143636936e-06
-0.000163400182926666,-0.00051262381748103,-8.97318764181313e-06,-2.81385095713748e-05
-0.000185668479542046,-0.000525736840113213,-3.28956553057687e-05,-4.97288628423971e-05
-0.000203049194994521,-0.000537645848849168,-5.49814109515854e-05,-6.29974189802222e-05
-0.000215101254886464,-0.0005456447926548,-6.6021757110244e-05,-6.67679406919181e-05
-0.000219631208159399,-0.000548672708789868,-6.63653638878936e-05,-6.79688075768181e-05
-0.000208926213319672,-0.000548505815774549,-5.86710535589474e-05,-6.87869642683028e-05
-0.000195133697696549,-0.00054651502052039,-4.51881146303834e-05,-6.62571048108259e-05
-0.000181984912275369,-0.000542283090489095,-3.18772318304616e-05,-6.13853090634615e-05
-0.000177550326439758,-0.000540804895210558,-2.69608467498516e-05,-5.8570419613164e-05
-0.000182759772703634,-0.000540161165008614,-3.228097370902e-05,-5.71754443810157e-05
-0.000191879283897834,-0.000534677537362429,-4.04001164646324e-05,-5.2466900681854e-05
-0.000190246116533644,-0.000526750119134791,-4.27700857240189e-05,-4.43961322590891e-05
-0.000188505660802463,-0.000520944626387633,-3.83931495695307e-05,-3.75654883492893e-05
-0.000184202205193174,-0.000516486198692691,-3.30048199588352e-05,-3.2742019129803e-05
-0.000180983554183457,-0.000508952171144019,-3.14654169487973e-05,-2.57652107620262e-05
-0.00017874241940632,-0.000496792822885086,-3.20565058851731e-05,-1.49078070981855e-05
-0.000174999247491315,-0.00048469307927448,-2.77088219782341e-05,-2.67184568496638e-06
-0.000168406973386226,-0.000475966958759246,-1.29706098727488e-05,9.26747079083815e-06
-0.00013045073333089,-0.00045896771305607,1.00191677338958e-05,2.00089016166817e-05
-0.000115787989842176,-0.000455665615538693,3.35934290589068e-05,2.5078883576857e-05
-9.58800373005889e-05,-0.000461113480395882,5.24381704324085e-05,2.02417471621185e-05
-7.93576287840383e-05,-0.000469279317216832,6.66870089720496e-05,1.02172956452731e-05
-6.8426136280664e-05,-0.000471472768275307,7.67522374424382e-05,5.46775040527154e-06
-6.46710434359934e-05,-0.000468015698672277,7.97170331781463e-05,8.65112103827663e-06
-7.20143361100159e-05,-0.000465083149974534,7.3995982304632e-05,1.20698010949881e-05
-8.04185915242786e-05,-0.000462532071026091,6.38847817149917e-05,1.07279953808108e-05
-8.64982656537453e-05,-0.00046269896404141,5.52509524723692e-05,9.47557996346145e-06
-9.35435350861272e-05,-0.000458538559588108,4.90791199831979e-05,1.3040622832575e-05
-9.98020231605782e-05,-0.000452220466865329,4.301521140531e-05,1.68294489191599e-05
-0.000104033953191874,-0.000452947643574932,3.6519323650978e-05,1.40564974908665e-05
-0.000109863287798362,-0.000458753136322089,2.99349282738033e-05,6.55826981203684e-06
-0.000118184096704966,-0.000462019471050469,2.09381818346235e-05,1.48623881729082e-06
-0.000131845482101767,-0.000459957150218317,7.3119822782601e-06,3.55716381262321e-07
-0.000145864495388537,-0.000461244610622204,-8.30423428517366e-06,-2.05037652650785e-06
-0.000158262262240783,-0.000465786484824806,-2.18796586953808e-05,-9.20180880957256e-06
-0.000170695791882026,-0.000472092656617919,-3.49652450946278e-05,-1.88235924609046e-05
-0.00018777848409286,-0.00047922137255796,-5.21469728092864e-05,-2.71680703765392e-05
-0.000205636036731961,-0.000481390981757103,-7.17501441881273e-05,-3.27441975206456e-05
-0.000218379510544509,-0.000481915502662391,-8.52410972801211e-05,-3.51695832365141e-05
-0.000219333184917759,-0.000477373628459789,-8.68784970098347e-05,-3.38526606021887e-05
-0.000210475934176203,-0.000470244912519748,-7.87086807255292e-05,-2.94283022651133e-05
-0.000195872795335817,-0.000463938740726634,-6.5333870200138e-05,-2.48646173915599e-05
-0.000180077563528869,-0.000459182289790052,-4.97769974079894e-05,-2.36153560457351e-05
-0.000165236006095171,-0.000458729294462758,-3.61481087411148e-05,-2.62970928822958e-05
-0.000157868871561818,-0.00046041014554561,-2.9697211312338e-05,-2.91298761393365e-05
-0.000158095369225464,-0.000453674820284535,-3.00958232292795e-05,-2.65508639611104e-05
-0.000157678136687168,-0.00044130089529162,-2.94717803625967e-05,-1.6858415255401e-05
-0.000146651276746468,-0.00042834284474509,-2.1765248524812e-05,-4.79210657459893e-06
-0.000137507923692937,-0.000415265584901904,-1.07934085924708e-05,3.53902646321878e-06
-0.000131332882126145,-0.000408244157328853,-4.72540546077857e-06,7.91190328615377e-06
-0.000129377849660984,-0.000402677083175008,-5.2918191233609e-06,1.33899345332929e-05
-0.000132131584413742,-0.000389027618707872,-7.26269005785101e-06,2.24756227634109e-05
-0.000132429607655383,-0.000376486800699639,-7.09404075473431e-06,3.14248646394515e-05
-0.000130784519361527,-0.000372660182276975,-7.04302899984756e-06,3.54086093388111e-05
-0.000135290630775132,-0.000371360800943422,-1.01467455863201e-05,3.37899759152736e-05
-0.000138127812035549,-0.000372529052050653,-1.47238905626614e-05,2.86017745330255e-05
-0.000140094765430377,-0.000377774261103526,-1.54701968678565e-05,2.14822129229266e-05
-0.000133836277355926,-0.000384533428223933,-8.51478994802497e-06,1.49336035993905e-05
-0.000118267543212625,-0.000381433986510872,5.62399406168174e-06,1.35464162148154e-05
-0.000101768976555406,-0.000371944926497038,2.36148506879097e-05,2.0162482260197e-05
-8.27312518794091e-05,-0.000360870382837676,4.31601088386545e-05,3.21241822596207e-05
-6.13570249889508e-05,-0.000345349332413038,6.41928899620188e-05,4.41470076334843e-05
-4.27007700622541e-05,-0.000332856198123467,8.50037959591162e-05,5.36945881533698e-05
-2.80380265735404e-05,-0.00032552482637911,9.84573235909224e-05,6.10750310031753e-05
-3.25441379871451e-05,-0.000318813342977365,9.59223931724492e-05,6.58449681727018e-05
-5.33103974646567e-05,-0.000315082091992026,7.6596798325581e-05,6.64331394816583e-05
-7.95722055180195e-05,-0.000318133849986425,5.02729649149159e-05,6.29299120093416e-05
-0.000101888185852062,-0.00032302143114933,2.88653641648161e-05,5.7527698359766e-05
-0.000116026408435488,-0.000324988384544157,1.7233791384948e-05,5.1926265283618e-05
-0.000120103366381131,-0.000330626984275996,1.36413129631747e-05,4.58037112113635e-05
-0.000119435794319856,-0.000338602086222296,1.53940723730291e-05,3.76407745809554e-05
-0.000116312510747463,-0.000347816964853821,2.00486331376275e-05,2.62220078741274e-05
-0.000115215785218226,-0.000359475634066798,2.35352066975187e-05,1.24700004945222e-05
-0.000116753585145091,-0.000371658824185063,2.24603712860132e-05,5.83598714886241e-07
-0.000122368343017599,-0.000376498721629305,1.84614831013818e-05,-5.0107809447191e-06
-0.00012778044508579,-0.000374591372882806,1.62442213014358e-05,-5.7450401388605e-06
-0.000127005584657525,-0.000377786182033192,1.66502696722664e-05,-9.28287113490847e-06
-0.00013132096119648,-0.00038936140473851,1.51441223844486e-05,-2.06399712563441e-05
-0.00014111996538162,-0.000401651883223765,8.08551255563826e-06,-3.51717752544529e-05
-0.000152087220673991,-0.000410532975824653,-2.72852762214147e-06,-4.45808895035962e-05
-0.000164175043354931,-0.00041394236170902,-1.29660049621363e-05,-4.82648708966811e-05
-0.000175368796310949,-0.000417578245257035,-2.0021828433114e-05,-5.31635489411046e-05
-0.000177693377595745,-0.000426006342530629,-2.26860153611673e-05,-6.2151428333749e-05
-0.000176668177644502,-0.000431966807363439,-1.97725152641712e-05,-6.86305065876921e-05
-0.000172054777863906,-0.000428116347081443,-1.20758193531738e-05,-6.55947824678895e-05
-0.000165486345618149,-0.000417566324327369,-3.79969557719615e-06,-5.5780504148125e-05
-0.00016118289000886,-0.000409972692130368,1.10527589826293e-06,-4.86764358437654e-05
-0.000161814699281138,-0.000410640264191643,3.26385014958787e-06,-4.9505106415635e-05
-0.000160324583072936,-0.000415051008167923,6.05945300702684e-06,-5.48033289509285e-05
-0.000158631811060417,-0.000416743780180441,1.02964188068817e-05,-5.78589719495695e-05
-0.000155973443744984,-0.000415170217464579,1.34498796063431e-05,-5.5118648657146e-05
-0.000156986722766562,-0.000406312966723023,1.39443410073042e-05,-4.73107439680286e-05
-0.000160348424932267,-0.000394892716103358,1.31522537176915e-05,-3.72869764317164e-05
-0.000162649164357732,-0.000385689758401499,1.25267752577042e-05,-2.7894201759502e-05
-0.000162482271342413,-0.000378656409898782,1.14908683624527e-05,-2.03671535055483e-05
-0.000168073187355589,-0.000370597861444823,9.39702469758671e-06,-1.37232828883953e-05
-0.000172185908090228,-0.000362718126935847,7.09960876626586e-06,-6.2431631527931e-06
-0.000173115740604147,-0.000353920480842619,4.65544520597876e-06,2.27917529060427e-06
-0.000180685530941816,-0.000346529504449934,-5.7886090365446e-07,1.03702899265297e-05
-0.000192391883873456,-0.000339067002479255,-1.10500142555683e-05,1.67623901815899e-05
-0.000207257283166485,-0.000333344956239757,-2.53497284735344e-05,2.14316518746202e-05
-0.00022145511039824,-0.000331151505181283,-3.99939427699756e-05,2.47174724987869e-05
-0.000236630453862575,-0.000328826923896487,-5.40229968755871e-05,2.65065532735401e-05
-0.000252771392629826,-0.000328552742514178,-6.87744718191822e-05,2.66751047805532e-05
-0.000266003624558665,-0.000328969975052474,-8.32639108694024e-05,2.5488362805874e-05
-0.000276756303117055,-0.000330841561009977,-9.35471341703821e-05,2.31716173923326e-05
-0.000281715409857953,-0.000336480160741816,-9.7967905580886e-05,1.9957437843964e-05
-0.000283050553980503,-0.000337278863029412,-9.93988681149119e-05,1.71314649769003e-05
-0.000282287614481903,-0.000335609932876225,-9.95159446973841e-05,1.70952766828364e-05
-0.000276839749624714,-0.000335109253830269,-9.39386159043379e-05,2.115814783107e-05
-0.000259923950429198,-0.000328505058795515,-7.75972408953083e-05,2.73411312200386e-05
-0.000235974802730966,-0.000321650524237783,-5.3837270921691e-05,3.12767765039762e-05
-0.000214385999106526,-0.000325477142660447,-3.31759303168823e-05,2.96245520986504e-05
-0.000201749813660968,-0.000334060212019695,-2.18267095227442e-05,2.25146571710954e-05
-0.000195169460485545,-0.000342154523262651,-1.52458026984448e-05,1.32159943375471e-05
-0.000184166442404177,-0.000348019620658137,-4.8802562258278e-06,6.28831102694154e-06
-0.000165116796798515,-0.000350999853074542,1.18406710929278e-05,5.6144194722508e-06
-0.000146067151192853,-0.000345063230101063,3.03811433584567e-05,1.23864618494837e-05
-0.000131392486774474,-0.000332224388851189,4.47811984913686e-05,2.38216291319386e-05
-0.000123000152289876,-0.000321531314941127,5.12214646945414e-05,3.45425052442675e-05
-0.000124013431311454,-0.000318706054610375,4.83913905115305e-05,4.03960637580618e-05
-0.000132918365771673,-0.000317120570964847,3.87601137910736e-05,4.10043228194947e-05
-0.000142085560684536,-0.000319266338304659,2.90228700135649e-05,3.83704469499095e-05
-0.000143361100158757,-0.000325441379871451,2.54710178540437e-05,3.39417473627867e-05
-0.000138092049246553,-0.000332403202796173,2.83672276370001e-05,2.8190713428496e-05
-0.000133669384340607,-0.000337409993255734,3.33536690477585e-05,2.22993771662951e-05
-0.000127494342773816,-0.00034289362090192,3.78523144884301e-05,1.80542176120545e-05
-0.000119531161757181,-0.000346291085856622,4.26477446507901e-05,1.53437158767844e-05
-0.000114369399211967,-0.000351369401894176,4.75933047415474e-05,1.13644397817667e-05
-0.000110447413351978,-0.000359010717809839,5.06459466938695e-05,3.73802419450956e-06
-0.000106859213522626,-0.000369620345212242,5.25056412762134e-05,-6.23498457680674e-06
-9.97901022309126e-05,-0.000379192851733735,5.72766803040395e-05,-1.46531543901136e-05
-9.07301956850407e-05,-0.000384545349153599,6.54601612389756e-05,-1.90752508842548e-05
-8.62002424121047e-05,-0.000386130832799127,7.03877060067311e-05,-2.05783858843922e-05
-8.7857251635626e-05,-0.000388169311771948,6.58434901050834e-05,-2.21428697457867e-05
-9.74059162977884e-05,-0.000393664860347799,5.44136441407277e-05,-2.61097135863194e-05
-0.000108838087847119,-0.000401389622771121,4.38315646984545e-05,-3.28871567026144e-05
-0.000114190585266983,-0.000408136868961863,3.7326789815844e-05,-4.04377166490514e-05
-0.000116801268863754,-0.00041356089195972,3.26045379432282e-05,-4.45810541900369e-05
-0.000119638450124171,-0.000412213826907505,2.84811783244947e-05,-4.16318293444423e-05
-0.000123584277843492,-0.00040318968315063,2.59284736802946e-05,-3.23746855546101e-05
-0.00012595654284695,-0.000392568134818562,2.22663009465776e-05,-2.26364434506787e-05
-0.000134658821502854,-0.000389254116371519,1.10918944618519e-05,-1.81721987397099e-05
-0.000155472764699028,-0.000393462204543483,-9.33980049743836e-06,-1.90175319949274e-05
-0.000181067000691116,-0.000391495251148656,-3.28270096444831e-05,-2.0274567782653e-05
-0.000198411953354594,-0.000389862083784466,-5.33730686567584e-05,-1.83522144897434e-05
-0.000215542329284092,-0.000389623665191154,-7.183284205139e-05,-1.44233637641528e-05
-0.000238347067734424,-0.000385534786315846,-9.03874581404592e-05,-1.09519527875183e-05
-0.00024987460672108,-0.000378513358742795,-0.000104849888075111,-7.05079019960051e-06
-0.000252556815895844,-0.000374901317054112,-0.000108561525735517,1.60567453636048e-07
-0.000248861327699502,-0.000365519545407268,-0.000102036485096889,1.01008364202261e-05
-0.000238800063061718,-0.000356543085369056,-9.28282155021141e-05,1.73140787034013e-05
-0.000231349482020705,-0.000357174894641333,-8.60288942211199e-05,1.67314671205903e-05
-0.000226640714802785,-0.000365483782618271,-7.99360924853725e-05,9.09007847386406e-06
-0.000218856347731134,-0.000376272223965658,-7.14067815735604e-05,-1.44293030043867e-07
-0.000207066548291835,-0.000379872344724676,-6.02972305996613e-05,-6.59009577059667e-06
-0.000194716465158252,-0.000383782409654999,-4.68371685299642e-05,-1.02771000562074e-05
-0.000178229819430698,-0.000388312362927935,-2.89089458837238e-05,-1.31908077608665e-05
-0.000153660783389853,-0.000389075302426535,-4.69333414853787e-06,-1.52733876959206e-05
-0.00012432337548276,-0.000387382530414017,2.46087774325479e-05,-1.4709583005739e-05
-9.5689302425939e-05,-0.000384795688676577,5.66204851297863e-05,-1.20422675962498e-05
-6.13093412702883e-05,-0.000384295009630621,8.94292610716657e-05,-1.15044008928501e-05
-3.29732914551074e-05,-0.000387942814108301,0.000118950420725991,-1.59052018645657e-05
-1.57833108772821e-05,-0.000392067455772606,0.000137575613642384,-2.11557965958728e-05
-1.4686585348045e-05,-0.000389301800090182,0.0001394509421815,-1.94116829661297e-05
-2.80976312218685e-05,-0.00037966968892036,0.000126553150185979,-8.89188339753636e-06
-4.82082395677709e-05,-0.000366020224453224,0.000106956833893799,2.64920004096368e-06
-6.83546107026703e-05,-0.000360536596807039,8.77210568456833e-05,7.10516999288231e-06
-8.63432935680922e-05,-0.000361418745602294,7.16416493060302e-05,6.29234333510305e-06
-9.82284604447162e-05,-0.000356960317907352,5.95416277412361e-05,8.89536340643977e-06
-0.000105285650806764,-0.000346922895128899,5.16772416407199e-05,1.82824039041474e-05
-0.000114405162000964,-0.000336158295640844,4.59643871991474e-05,2.86679401793713e-05
-0.000122678287188905,-0.000327420254195944,3.80996942373989e-05,3.44109479812507e-05
-0.000132644184389364,-0.000324440021779538,2.6055739168446e-05,3.76338275629238e-05
-0.000146698960465131,-0.000318539161595056,1.35641269678933e-05,4.30339277266852e-05
-0.000156486043720606,-0.000309121627159216,7.13465847869915e-06,4.92925441083763e-05
-0.000151538857909373,-0.000306451338914117,9.2364835397417e-06,5.10711511232042e-05
-0.000145006188452613,-0.00030997993409514,1.53595658891239e-05,4.77409754428808e-05
-0.00014446974661766,-0.00031074287359374,1.85834211659736e-05,4.4182144109363e-05
-0.000147092351144096,-0.000310814399171734,1.67901959659952e-05,4.2302997072124e-05
-0.000146460541871818,-0.000315976161716948,1.39659187046163e-05,3.72123637421018e-05
-0.00014822483946233,-0.000325465221730782,1.32829887342511e-05,2.46525436123721e-05
-0.000153410443866875,-0.00034117700703007,1.03713187665792e-05,8.38121101932226e-06
-0.000166046629312434,-0.000352036973955451,-3.47763406969299e-06,-4.09497136567066e-06
-0.000190413009548963,-0.000356805345821699,-3.12265619661786e-05,-1.15336358547375e-05
-0.000227665914754028,-0.000365030787290978,-6.66872963827379e-05,-2.01948467935643e-05
-0.000266313568729971,-0.000377237819268573,-0.000102304088430931,-3.44203834392594e-05
-0.000293624418593908,-0.000390338920971091,-0.000135652862401232,-4.97253466817755e-05
-0.000321578998659789,-0.000397384190403473,-0.000164607754585687,-5.7880201590661e-05
-0.000343370458088544,-0.000393974804519105,-0.000181126269496306,-5.69548883873652e-05
-0.000335645695665222,-0.000388658069888238,-0.000178014309347111,-5.29266308383209e-05
-0.000315463561741326,-0.000385415577019189,-0.000161214000414561,-5.12498440027125e-05
-0.000303339976271389,-0.000381815456260172,-0.000146900375034352,-5.00675061975227e-05
-0.00030047895315164,-0.000372612498558313,-0.000143460711587906,-4.36847586806627e-05
-0.000295639055707398,-0.000359487554996464,-0.000142990955708606,-3.06599163504857e-05
-0.00028444530275138,-0.000342905541831585,-0.000134454545375004,-1.55078173315904e-05
-0.000271832959165153,-0.000324749965950845,-0.000118293291960245,-3.01317428792517e-06
-0.000252068057779554,-0.000315749664053301,-0.000101090956263719,6.03022325610137e-06
-0.000227141393848741,-0.000310230273618118,-8.11092358145966e-05,1.28509564003395e-05
-0.000196516525537761,-0.000298070925359185,-4.94695806558036e-05,1.75238792247012e-05
-0.000152945527609916,-0.000294995325505455,-5.38501383486985e-06,1.97959523868043e-05
-0.000104653841534486,-0.000294256227866186,3.96264513668075e-05,2.11623826927625e-05
-6.45399132096716e-05,-0.000287938135143407,7.6287481737213e-05,2.34026016216489e-05
-3.26633472838013e-05,-0.000283026712121171,0.000108616590890427,2.5480673240673e-05
1.71661387184941e-06,-0.000282108800536919,0.000144226360324442,2.4265189208453e-05
4.13417840803733e-05,-0.00028684140961417,0.000178244463613036,1.89016248662815e-05
6.07013738573416e-05,-0.000289571302507597,0.00019484375777594,1.28954187515668e-05
4.61697605949498e-05,-0.00028885604672766,0.000184883294078098,1.08271985440815e-05
2.25663198570204e-05,-0.000283253209784818,0.000156286544856287,1.37105556978836e-05
-4.87566023323895e-06,-0.000277733819349636,0.000125073727969973,1.86115227734886e-05
-3.17931194182109e-05,-0.000270557419690932,0.000100163628367265,2.26888698284629e-05
-5.09023696722013e-05,-0.000263595596766209,7.98209603907386e-05,2.63486886522592e-05
-6.71267549471113e-05,-0.000256061569217537,6.00502625016086e-05,3.13654439773384e-05
-8.47697308522302e-05,-0.000250208392751717,4.15690025053959e-05,3.65136905460831e-05
-9.81569348667225e-05,-0.00024641753711805,2.78016392046951e-05,3.71457979625068e-05
-0.000105524069400076,-0.000249612346268436,1.97303730391628e-05,3.01724792713988e-05
-0.00010616779960202,-0.000259709373695217,1.56528678683627e-05,1.79847374312942e-05
-0.000107681757669554,-0.000271451489415854,1.44844358542976e-05,5.7792451303682e-06
-0.000105905539149376,-0.000277066247288361,1.58985042111976e-05,-3.92294465102463e-06
-0.000101888185852062,-0.000281429307545978,1.71792555346933e-05,-1.21171707869009e-05
-0.000105285650806764,-0.000288927572305654,1.35797895809358e-05,-1.97559888724138e-05
-0.000114941603835917,-0.000292360800049353,3.79556087563291e-06,-2.62545383058831e-05
-0.000123846538296136,-0.000294578092967158,-7.29409054615137e-06,-3.14764690187658e-05
-0.000129938133355268,-0.00029653312543232,-1.37445165145706e-05,-3.62856352031913e-05
-0.000130975254236177,-0.000299108046240094,-1.47537843810073e-05,-4.0407115584993e-05
-0.000128197677624087,-0.000298786181139122,-1.34101473885931e-05,-4.20940839415046e-05
-0.000125062473122029,-0.00029345752557859,-1.11509232068774e-05,-4.06292739567195e-05
-0.000121009357035718,-0.000288319604892707,-7.06298639253734e-06,-3.7209254434713e-05
-0.000115442282881873,-0.000283312814433146,-1.92000876716796e-06,-3.33803487820818e-05
-0.000111591822599877,-0.000277006642640033,1.08439002332965e-06,-3.11209365770127e-05
-0.000111806399333858,-0.000278091447239604,2.76186758731815e-07,-3.3766873902669e-05
-0.000114798552679929,-0.000285863893381589,-2.95961975179713e-06,-4.23833157140668e-05
-0.000119674212913168,-0.000290083902483219,-7.27485806389335e-06,-5.06585807461348e-05
-0.000124049194100451,-0.00028645993986487,-1.29097734212268e-05,-4.89075025517693e-05
-0.000129556663605968,-0.000273513810248006,-1.91636399678215e-05,-3.57933416010968e-05
-0.000135004528463157,-0.000255489364593587,-2.35260793449436e-05,-2.12206373152817e-05
-0.000136303909796709,-0.000245499625533797,-2.51474687854567e-05,-1.41334995095041e-05
-0.000136697300475675,-0.000243556513998301,-2.6593597393102e-05,-1.22001714372632e-05
-0.000140190132867702,-0.000238835825850715,-3.00449067269238e-05,-8.08444921116867e-06
-0.000144243248954013,-0.000227594389176034,-3.36794354661113e-05,-1.08204755279484e-06
-0.000144922741944953,-0.000221931947584864,-3.3813263662942e-05,4.07371274590321e-06
-0.000138330467839865,-0.0002192497384101,-2.91481428089464e-05,6.64973650473884e-06
-0.000131475933282133,-0.000214052213075889,-2.13429734460584e-05,1.0348716497474e-05
-0.000123631961562154,-0.000206851971557854,-1.29957521639672e-05,1.54900973201581e-05
-0.00011683703165275,-0.000202500832229902,-6.60239790393994e-06,1.85127405406092e-05
-0.000113356120190389,-0.000202441227581574,-3.8528273609554e-06,1.98633524589929e-05
-0.000114369399211967,-0.000195586693023842,-4.31686424546608e-06,2.52269182590739e-05
-0.000116682059567097,-0.000181972991345703,-6.24758962914712e-06,3.69460041499104e-05
-0.00011980534313949,-0.00016885996871352,-9.8110334667195e-06,5.01522848588607e-05
-0.000127244003250837,-0.000160300741213604,-1.73712497403323e-05,5.95634926046946e-05
-0.000139057644549468,-0.000155842313518662,-2.90319263716898e-05,6.459942723566e-05
-0.000150215634716489,-0.000150644788184451,-4.04197205464776e-05,6.55162916448944e-05
-0.000158047685506802,-0.00015935898777002,-4.72296314009203e-05,6.05145474713376e-05
-0.000159525880785339,-0.000170612345374366,-4.97974069255571e-05,5.05367573918916e-05
-0.000160062322620292,-0.000176596652066508,-5.06611508693375e-05,4.1849371870324e-05
-0.00016050339701792,-0.000180304061192516,-4.9910947955006e-05,3.89627497058634e-05
-0.000157105932063218,-0.000183963786599862,-4.61602255051823e-05,3.83327528456408e-05
-0.000149023541749927,-0.000188636791028785,-4.01302801186023e-05,3.34853526010456e-05
-0.000143837937345382,-0.000198113930112954,-3.34454363907889e-05,2.3511380769654e-05
-0.000135898598188078,-0.000211608422494437,-2.51465640013029e-05,1.21369375377157e-05
-0.000123512752265498,-0.00022463799861896,-1.33137837524423e-05,1.08624045574022e-06
-0.000109422213400734,-0.000236809267807559,6.83478784874514e-07,-1.05326107889847e-05
-9.68456326035042e-05,-0.000248980536996158,1.34802849848791e-05,-2.1737401019205e-05
-8.62717679900985e-05,-0.000258851066759292,2.44646813122463e-05,-2.96272909519589e-05
-7.62105033523144e-05,-0.000265312210638059,3.46925679775566e-05,-3.3658742107932e-05
-6.95109408802355e-05,-0.000268816963959751,4.13587153842822e-05,-3.59874428461552e-05
-7.11202663850943e-05,-0.000271260754541204,3.89899960434569e-05,-3.74934255356017e-05
-8.36968471823244e-05,-0.000274193303238946,2.80426228780468e-05,-3.67463481049365e-05
-9.46283396856987e-05,-0.00027157069871251,1.76308913195665e-05,-3.27642348699578e-05
-9.39250048354271e-05,-0.00026639701523763,1.65785553473323e-05,-2.56503670781367e-05
-8.71300749260232e-05,-0.00025774242030039,2.46715871200136e-05,-1.48098870078805e-05
-7.78555916461701e-05,-0.000245773806916106,3.52693416528148e-05,-8.50220776819039e-08
-6.90460246232763e-05,-0.000233244909837539,4.36186351946938e-05,1.51224775360111e-05
-6.26921691115003e-05,-0.000224244607939995,4.94979371364181e-05,2.55036492380909e-05
-5.97953832027544e-05,-0.000222551835927477,5.39453587699802e-05,2.97435875564798e-05
-5.71250949576554e-05,-0.000224816812563945,5.69777569477878e-05,3.19100542929709e-05
-5.69105182236742e-05,-0.000221574319694896,5.76501082678212e-05,3.56196197085898e-05
-6.10470808176446e-05,-0.000220549119743652,5.36408690060177e-05,3.90339748416206e-05
-7.34448476698904e-05,-0.000227344049653056,4.16772726326192e-05,3.69425113006019e-05
-9.53674373249672e-05,-0.000239634528138311,2.13033852106788e-05,2.62439406814126e-05
-0.000118696696680587,-0.000258016601682699,-1.76336769160969e-06,8.75948508292736e-06
-0.000135707863313428,-0.000281465070334975,-1.83190825964103e-05,-9.49864764608954e-06
-0.00013986826776673,-0.000295174139450439,-2.24253914352004e-05,-2.13427289548575e-05
-0.000134551533135863,-0.000298225897444838,-1.50211190371166e-05,-2.32184067766495e-05
-0.000122416026736261,-0.000297606009102226,-1.95493045007731e-06,-1.86340191654781e-05
-0.00010992289244669,-0.00029683114867396,1.00291696574956e-05,-1.53238194302905e-05
-0.000103795534598561,-0.000300419348503312,1.65254076358475e-05,-1.77371142870735e-05
-0.000106203562391017,-0.000309920329446812,1.74128867570585e-05,-2.34779547370883e-05
-0.000107598311161894,-0.000315654296615976,1.62301959762686e-05,-2.77409425878085e-05
-0.00010597706472737,-0.000319695491772621,1.64868137960036e-05,-2.92111740999125e-05
-0.000106155878672354,-0.00032255651489237,1.85344745923087e-05,-3.0072322818924e-05
-0.000106728083296304,-0.000326597710049016,2.06803626580767e-05,-3.17917015675199e-05
-0.000104773050831142,-0.000329327602942443,2.21766999147952e-05,-3.28299187326919e-05
-0.00010290146487364,-0.0003286838727405,2.31929224383884e-05,-2.9882042634728e-05
-0.000106120115883357,-0.000320076961521921,2.24839906174073e-05,-2.03457646279444e-05
-0.000113797194588017,-0.000307273883061044,1.75628162860772e-05,-4.79449685067334e-06
-0.00012269020811857,-0.000292158144245037,7.62423620042832e-06,1.16187837399785e-05
-0.000134515770346866,-0.000282776372598193,-5.55081276887323e-06,2.15744230542234e-05
-0.000153267392710888,-0.000284457223681046,-2.00934011445212e-05,2.15621859994394e-05
-0.000170803080249016,-0.000293552893015915,-3.56286157075514e-05,1.52102958532924e-05
-0.000183272372679256,-0.000298571604405141,-5.1479088430231e-05,9.35498949186787e-06
-0.000198400032424929,-0.000300693529885622,-6.49092150846976e-05,7.43523966989727e-06
-0.000209426892365628,-0.000303733366950355,-7.27257513011894e-05,8.0357824956878e-06
-0.000211358082971459,-0.000302612799561787,-7.41503753403016e-05,8.57370266050508e-06
-0.000205481064646307,-0.000301682967047868,-7.11584367078435e-05,7.71571113093455e-06
-0.000203049194994521,-0.00030823947836396,-6.63354622903412e-05,4.39013952959052e-06
-0.000200688850920728,-0.000315034408273364,-6.10828365631111e-05,-2.53939110850302e-06
-0.000193023693145734,-0.000323224086953645,-5.53664982640413e-05,-1.22273892000601e-05
-0.000185358535370739,-0.000332891960912464,-4.79473014998468e-05,-2.11785092607528e-05
-0.000175023089350646,-0.000337815304864365,-3.65032230076668e-05,-2.60697582559147e-05
-0.00015887022965373,-0.000337588807200718,-1.86929314479907e-05,-2.65949724663392e-05
-0.000134336956401882,-0.000336015244484856,5.07279089706414e-06,-2.50368424049039e-05
-0.000109004980862438,-0.000333082695787114,2.91760730792966e-05,-2.41177214515043e-05
-9.35554560157928e-05,-0.000334751625940301,4.478557644563e-05,-2.57479830740455e-05
-9.45448931780394e-05,-0.00033924581642424,4.71763844846472e-05,-3.02912728490211e-05
-9.72747860714666e-05,-0.000341868420950676,4.16533806614599e-05,-3.5583159088491e-05
-9.6726423306848e-05,-0.000342214127910979,3.9477819505061e-05,-3.73970980355221e-05
-9.43660792330551e-05,-0.000337564965341387,4.58430388021533e-05,-3.24666984879135e-05
-8.62836889197641e-05,-0.00032438041713121,5.37835880008829e-05,-2.15356613877001e-05
-8.31604053473714e-05,-0.000309431571330522,5.25844585617102e-05,-9.17513379968954e-06
-9.62138233312263e-05,-0.000299859064809028,4.04200267840427e-05,-3.2140743846372e-07
-0.000113773352728686,-0.000293302553492937,2.47150817042028e-05,3.96404101008631e-06
-0.000125527389378988,-0.000287449377027117,1.09103736116075e-05,8.59050742708417e-06
-0.000136756905124003,-0.000270986573158894,-3.34258168729297e-06,2.16951309719573e-05
-0.000155758867011003,-0.000243473067490641,-2.06034846071918e-05,4.71695702170471e-05
-0.000170278559343729,-0.000211513055057112,-3.54606561226813e-05,7.86723953276016e-05
-0.000170946131405004,-0.000183022033156278,-3.91992474303759e-05,0.000102825913246437
-0.000162470350412747,-0.000173532973142443,-3.09403350864997e-05,0.000109953421780546
-0.000150370606802142,-0.000181806098330384,-1.92926915931141e-05,0.00010082774841748
-0.000142359742066845,-0.000196361553452108,-1.27440987994183e-05,8.25569567030708e-05
-0.000140273579375361,-0.000215053571167801,-1.2169455591502e-05,6.06961014791243e-05
-0.000140714653772989,-0.000236845030596556,-1.35684975331999e-05,3.7646664727511e-05
-0.00014082194213998,-0.000255715862257234,-1.45383753885323e-05,1.59443547100962e-05
-0.000139665611962414,-0.000269162670920054,-1.58029868299457e-05,-1.68523445486978e-06
-0.000142228611840523,-0.000281929986591934,-1.85308547415488e-05,-1.57447822707491e-05
-0.000145053872171275,-0.000293481367437921,-2.27839655808385e-05,-2.9783065195034e-05
-0.000147831448783365,-0.000306057948235151,-2.80590871726459e-05,-4.56848297825197e-05
-0.000152099141603657,-0.000318193454634753,-3.34179641237871e-05,-6.16467344220048e-05
-0.000155472764699028,-0.000331521054000917,-3.6798082018204e-05,-7.56357848497605e-05
-0.000151419648612717,-0.000341713448865023,-3.53092724389499e-05,-8.81574680182515e-05
-0.000140476235179677,-0.000348246118321783,-2.71056120152503e-05,-0.000100065960267997
-0.000126826770712541,-0.000356388113283402,-1.33133379071363e-05,-0.000109690947667849
-0.00011087656681994,-0.000361073038641992,2.21868774573036e-06,-0.000113956818384083
-9.30666978995024e-05,-0.00035231115533776,1.6361487697692e-05,-0.000111320096656546
-7.66158149609455e-05,-0.000341784974443017,3.06029578210254e-05,-0.000102633269556743
-5.89728390558266e-05,-0.000328612347162506,4.96577844958992e-05,-9.01933467933711e-05
-3.36527844460478e-05,-0.000311386603795684,7.36627774366004e-05,-7.6231003037159e-05
-8.90493446021881e-06,-0.000294768827841808,9.28577153750817e-05,-6.04895486514317e-05
-8.7261205152345e-06,-0.000268268601195133,9.43210464219439e-05,-3.90796945094663e-05
-2.80022637845435e-05,-0.000237917914266462,7.56824757500242e-05,-8.77895554545002e-06
-5.05685836415639e-05,-0.000203859818211783,4.90759282508099e-05,2.61056172625669e-05
-6.80565874610297e-05,-0.000169587145423123,2.90792141393906e-05,5.44372143998115e-05
-7.96675729553445e-05,-0.000152814397383594,1.90926303022497e-05,6.87542908082262e-05
-8.53657773355113e-05,-0.000152564057860616,1.22895273495663e-05,7.29384582336315e-05
-9.03725677950721e-05,-0.000144791611718631,3.26182343921509e-06,7.63185084454545e-05
-0.000100135809191216,-0.00013507605404115,-6.21215082428222e-06,8.20240889891976e-05
-0.000106263167039345,-0.000134110458738235,-1.25293148957495e-05,8.50462780716812e-05
-0.000108087069278185,-0.000137972839949896,-1.61167092465509e-05,8.08167802027795e-05
-0.000110161311040003,-0.000144326695461672,-1.96347076654205e-05,7.12701331101341e-05
-0.000112962729511424,-0.000152719029946269,-2.34594058533026e-05,6.18995293507232e-05
-0.000115442282881873,-0.000158476838974764,-2.56835845945309e-05,5.65896106603496e-05
-0.000113475329487045,-0.000158643731990083,-2.52107274199131e-05,5.64199626821849e-05
-0.000110077864532343,-0.000153076657836238,-2.29777076565492e-05,5.99606649309809e-05
-0.000107848650684872,-0.000149762639389195,-2.11454506880509e-05,6.2656945609126e-05
-0.000108647352972469,-0.000154757508919091,-2.22683312792161e-05,5.87098881942335e-05
-0.000113344199260724,-0.000165879736297115,-2.76904119442281e-05,4.65290604657852e-05
-0.000120067603592134,-0.00018143654951075,-3.51477163162496e-05,3.14530566254501e-05
-0.000123858459225801,-0.000190579902564281,-3.94433086929214e-05,2.12091716601211e-05
-0.000121927268619971,-0.000192332279225128,-3.75051160865574e-05,1.91115645962685e-05
-0.000115752227053179,-0.000191771995530843,-3.16949701070581e-05,2.24692460401325e-05
-0.000109744078501706,-0.000185549270245389,-2.6140525259499e-05,2.63639284093757e-05
-0.00010453463223783,-0.000184094916826184,-2.10177709428719e-05,2.7773410654992e-05
-9.62972698388856e-05,-0.000185978423713352,-1.31617888171987e-05,2.71497123172508e-05
-8.56280377881549e-05,-0.000186729442282286,-1.79705125031177e-06,2.73788206057155e-05
-7.43150755354807e-05,-0.000182950507578284,9.29874957182892e-06,3.05884287653117e-05
-6.72221223844363e-05,-0.000177156935760792,1.56480940726973e-05,3.52061161012983e-05
-6.81400339686891e-05,-0.00017749072179143,1.55261479782352e-05,3.71195017861017e-05
-7.55548522207053e-05,-0.000181663047174397,9.21223514402081e-06,3.42717891564028e-05
-8.58664563814674e-05,-0.000185406219089402,-2.01742506949043e-06,2.85000242356418e-05
-9.810925114806e-05,-0.000191724311812181,-1.42925634327638e-05,2.1994113450651e-05
-0.000106561190280985,-0.000202739250823215,-2.08424154945428e-05,1.41747005834865e-05
-0.000101685530047746,-0.000212526334078689,-1.61305146573159e-05,3.85285875062195e-06
-8.59379819594611e-05,-0.000222051156881521,-2.79544336884605e-07,-7.77703551371056e-06
-6.49571457479683e-05,-0.000235176100443369,2.14417480644141e-05,-1.90952749268311e-05
-4.47869327537377e-05,-0.000248503699809533,4.25102222353668e-05,-3.12132686437293e-05
-3.04818171549926e-05,-0.000261628643371382,5.76968134391164e-05,-4.54391821947618e-05
-2.46047988298415e-05,-0.000273764149770984,6.38472185997224e-05,-5.84538829557656e-05
-2.81095521515341e-05,-0.000281322019178988,6.10905693071036e-05,-6.464360255285e-05
-3.65495703547937e-05,-0.000280594842469385,5.33590619243841e-05,-6.43268266497166e-05
-4.62412861729435e-05,-0.000281643884279959,4.56038253362463e-05,-6.54920639664605e-05
-5.22255928650852e-05,-0.000289464014140607,3.96748934053588e-05,-7.4645810433866e-05
-5.81860576978956e-05,-0.000304245966925977,3.38130245708104e-05,-8.86934096913979e-05
-6.79492990940391e-05,-0.000314116496689111,2.62090126712724e-05,-9.91527436933089e-05
-7.80701683801513e-05,-0.000316548366340897,1.76905860758674e-05,-0.000102709079262699
-8.48889401488864e-05,-0.000317823905815119,1.03589789261603e-05,-0.000103620975957582
-9.15765816912998e-05,-0.000317704696518463,4.74359353614088e-06,-0.000105544568743585
-9.89079534356566e-05,-0.000316619891918891,-5.46224343157369e-07,-0.00010495999179658
-0.000106263167039345,-0.00030834676673095,-6.54926398487319e-06,-9.55813994569324e-05
-0.000112199790012824,-0.000287282484011798,-1.22126113261542e-05,-7.78887105639975e-05
-0.00011520386428856,-0.000268483177929114,-1.54423907765503e-05,-6.07190376882831e-05
-0.000119280822234203,-0.000261533275934057,-1.58434178599558e-05,-5.16597421388831e-05
-0.000120413310552437,-0.000254416480923681,-1.59153568026436e-05,-4.75605666013886e-05
-0.000122153766283617,-0.000241827979196786,-1.89977460336348e-05,-3.75093265834415e-05
-0.000131082542603167,-0.000220394147657999,-2.61380125852426e-05,-1.55812849683553e-05
-0.000143682965259729,-0.000191044818821241,-3.54450319236018e-05,1.21248791100966e-05
-0.000152492532282623,-0.000167274485067992,-4.41065509145608e-05,3.46538118062348e-05
-0.000157225141359874,-0.000151896485799342,-4.99733234888286e-05,4.75810691738475e-05
-0.000161254415586854,-0.000144064435009029,-5.14833428210413e-05,5.42576611600792e-05
-0.00016069413189257,-0.000139856346837064,-4.79568819472063e-05,5.81940722779019e-05
-0.000152885922961588,-0.000136387356304369,-4.06394385498134e-05,5.94702659912206e-05
-0.000142478951363501,-0.000135326393564128,-3.16955969024091e-05,5.86428088335696e-05
-0.000136101253992394,-0.00013306141692766,-2.12178949530434e-05,5.8557652926441e-05
-0.000124263770834432,-0.00013352633318462,-7.27753634926731e-06,5.99311463344863e-05
-0.000104749208971811,-0.000130188472878246,9.46827238683493e-06,5.94468377668529e-05
-9.25660188535463e-05,-0.00013227463556973,2.35748698726649e-05,5.51231114506261e-05
-8.85129027672352e-05,-0.000138568886433177,3.01364480143148e-05,4.96108919537928e-05
-8.86917167122195e-05,-0.000142049797895539,3.06791477028706e-05,4.45510803557256e-05
-8.82029585959291e-05,-0.000149536141725549,3.00127829249281e-05,3.5603602159641e-05
-9.10162979970156e-05,-0.000164854536345871,2.8134848739799e-05,1.84734660386055e-05
-0.000102186209093702,-0.000185155879566424,2.02020615800071e-05,-2.45097522678455e-06
-0.000115644938686188,-0.000201106083459025,5.63946484050661e-06,-1.74372440354937e-05
-0.000128757961318371,-0.000204348576328074,-7.62439473908738e-06,-2.27243594627836e-05
-0.000134146221527232,-0.000201737892731303,-1.13743245206167e-05,-2.30659684226594e-05
-0.000130033500792593,-0.000205349934419986,-6.57984830492789e-06,-2.3219988471374e-05
-0.000125169761489019,-0.000204098236805095,-9.82299583135684e-07,-2.2915469738095e-05
-0.000122439868595592,-0.000199723255617813,9.14263290679181e-07,-2.14249372826414e-05
-0.000122606761610911,-0.000200700771850393,1.42638213297181e-06,-2.09909205250602e-05
-0.000122046477916627,-0.000204551232132389,3.82300942591498e-06,-2.2428147927893e-05
-0.00011836291064995,-0.000200831902076715,6.91510840537327e-06,-2.17329607030068e-05
-0.000117731101377672,-0.000195801269757823,6.90575079899587e-06,-1.47850382788051e-05
-0.000123047836008539,-0.000184738647028127,2.46788937479698e-06,-2.47732323901489e-06
-0.000130188472878246,-0.000170063982609748,-3.49480953606986e-06,1.18306803016727e-05
-0.000132608421600367,-0.000156891355329237,-6.52212769269747e-06,2.68909160145594e-05
-0.000129866607777274,-0.000143158444354441,-4.82924732270122e-06,4.21715457176701e-05
-0.000128102310186762,-0.000130438812401224,-1.60615217567941e-06,5.46988965653784e-05
-0.000129199035715999,-0.00012623072422926,-2.69675224535045e-06,6.15341149155278e-05
-0.000137114533013972,-0.000126707561415885,-1.07947322793622e-05,6.39116901073499e-05
-0.00014754534647139,-0.000125348575434004,-2.23159000921597e-05,6.51766233188166e-05
-0.000156831750680909,-0.00012710095209485,-3.1208562963686e-05,6.58298901364588e-05
-0.000162112722522779,-0.00013219118906207,-3.50047507869707e-05,6.42992479429813e-05
-0.000160348424932267,-0.000137162216732634,-3.52418599407802e-05,6.14436513654807e-05
-0.000157082090203887,-0.000139617928243752,-3.29104178363319e-05,5.98938820164877e-05
-0.000152754792735266,-0.000144910821015288,-2.67501999925417e-05,5.90340592685224e-05
-0.000141978272317545,-0.000151598462557701,-1.65283540842396e-05,5.50389678154271e-05
-0.0001280546264681,-0.000162172327171107,-4.74313244541238e-06,4.68982887477306e-05
-0.000117576129292019,-0.0001736521824391,6.72943850020018e-06,3.85605463973678e-05
-0.00010491610198713,-0.000182461749461994,1.92619301618724e-05,3.33124233002847e-05
-8.88228469385413e-05,-0.000190019618869997,3.42813243690386e-05,2.90809605571657e-05
-7.42554708871526e-05,-0.000200903427654709,4.88418880072004e-05,2.14756535308286e-05
-6.48021736623152e-05,-0.00021647216179801,5.71430492762246e-05,9.17234412911168e-06
-6.57558480355649e-05,-0.000235736384137653,5.64835700080138e-05,-5.99110436315305e-06
-7.19547314616878e-05,-0.00025545360180459,4.98186851129457e-05,-2.23322821840144e-05
-7.88688706677479e-05,-0.000275361554346177,4.20106115975993e-05,-3.89354431774345e-05
-8.48889401488864e-05,-0.000294744985982477,3.49136383016057e-05,-5.39138513117749e-05
-9.36985071717803e-05,-0.000309169310877878,2.69222501335677e-05,-6.49713764318913e-05
-0.000102591520702333,-0.000319552440616634,1.66047398260998e-05,-7.198646120894e-05
-0.000113296515542061,-0.000328731556459162,5.57989139551806e-06,-7.69008780882317e-05
-0.000120556361708424,-0.000335586091016894,-2.81403525972299e-06,-8.03451955163723e-05
-0.000125324733574673,-0.000339615365243874,-7.3027255058637e-06,-8.01676299572307e-05
-0.000127220161391506,-0.000336456318882484,-9.92138232682318e-06,-7.46789759253262e-05
-0.000129127510138006,-0.000332272072569851,-1.29333480844126e-05,-6.62432760465497e-05
-0.00013151169607113,-0.000330281277315693,-1.58413812560834e-05,-5.96242773755473e-05
-0.000132811077404682,-0.000329244156434784,-1.69855103322225e-05,-5.64710813614408e-05
-0.00013151169607113,-0.000327372570477281,-1.70376753859765e-05,-5.30351731987802e-05
-0.00013276339368602,-0.000325632114746101,-1.84226093976115e-05,-4.44765292450739e-05
-0.000134992607533491,-0.000314104575759445,-2.14500743912562e-05,-3.0390581184322e-05
-0.000136637695827347,-0.000296616571939979,-2.38398817370181e-05,-1.43519358920664e-05
-0.000137758263215915,-0.000287616270042435,-2.47504422992862e-05,1.46458962082041e-06
-0.000138390072488193,-0.000274634377636574,-2.6399587515721e-05,1.83924605910114e-05
-0.000141227253748611,-0.000254499927431341,-3.00875370756292e-05,3.67341231183308e-05
-0.00014389754199371,-0.000242912783796357,-3.29988627651598e-05,5.1768043656763e-05
-0.000142228611840523,-0.000241732611759461,-3.105586397165e-05,5.78726881109842e-05
-0.000133156784364985,-0.000242865100077695,-2.32588132644804e-05,5.6442358536122e-05
-0.00012056828263809,-0.000244474425582553,-1.13773581805008e-05,5.60228107729094e-05
-0.00010665655771831,-0.000240135207184267,2.6765530641796e-06,6.25141953247981e-05
-9.28759630248524e-05,-0.000234317793507444,1.671771762519e-05,7.14418913284888e-05
-8.08954287109034e-05,-0.000231885923855658,2.72065435711412e-05,7.28389814086628e-05
-7.64608428752925e-05,-0.000242674365203045,3.12955626436911e-05,6.29145292387324e-05
-7.90834474017291e-05,-0.000260794178294788,2.92839847964753e-05,4.75845666968678e-05
-8.52584889685207e-05,-0.000273239628865697,2.28682050987872e-05,3.39954780599722e-05
-9.42945536550613e-05,-0.000285995023607911,1.23830707943432e-05,2.22275352281929e-05
-0.000109124190159094,-0.000299894827598025,-1.32333979019862e-06,8.11746427427263e-06
-0.000120472915200765,-0.000316751022145213,-1.38481512140264e-05,-8.20174295040608e-06
-0.0001280546264681,-0.000329065342489799,-2.03996681138171e-05,-2.11865976230755e-05
-0.000128853328755696,-0.000335276146845588,-2.19024625030463e-05,-2.76739189271652e-05
-0.000129926212425602,-0.000338721295518952,-2.36352740591934e-05,-3.17900758065233e-05
-0.000134265430823888,-0.000346052667263309,-2.70143262733599e-05,-3.98964489282769e-05
-0.000134563454065529,-0.000358533880623214,-2.71237669660607e-05,-5.31818185415157e-05
-0.000127172477672844,-0.000371813796270716,-2.03037217294193e-05,-6.77718323754659e-05
-0.000116992003738404,-0.000382697605055428,-1.00306688751324e-05,-8.0070528887323e-05
-0.000109255320385416,-0.000390255474463431,-1.99828580524598e-06,-8.85207954358198e-05
-0.000104761129901476,-0.000390374683760088,3.59913929630876e-06,-9.11056093822231e-05
-9.7072130267151e-05,-0.000384259246841624,1.09164327467236e-05,-8.55214231961461e-05
-8.57234052254799e-05,-0.000369143508025617,2.12897436786921e-05,-7.33921726688504e-05
-7.78675125758357e-05,-0.000355494043558481,3.10962087950042e-05,-6.15455753884846e-05
-7.41839453091589e-05,-0.000350344201942933,3.60547889997336e-05,-5.67166409757787e-05
-7.39216848565152e-05,-0.000348436853196433,3.41952235700653e-05,-5.95521652025181e-05
-8.41498425096179e-05,-0.000352144262322441,2.51156733071976e-05,-6.46251335380001e-05
-0.000100898748689815,-0.000352847597172713,1.05146296182846e-05,-6.53628274727211e-05
-0.000114500529438289,-0.000340592881476455,-3.53735450550755e-06,-5.84118071559965e-05
-0.000119459636179187,-0.000324881096177166,-8.74971345132297e-06,-4.47563409664158e-05
-0.000113558775994705,-0.000308203715574963,-1.85984170949366e-06,-2.81475375417965e-05
-0.000101518637032428,-0.00028790237235441,1.18324484309085e-05,-1.19858873410594e-05
-8.97049957337973e-05,-0.000269961373207651,2.4016692037957e-05,3.34434841216042e-06
-8.19802333104749e-05,-0.000250840202023995,3.10261734458998e-05,1.99597996901417e-05
-8.00967264233068e-05,-0.000231528295965689,3.43753247341871e-05,3.88082383595776e-05
-8.08358240625753e-05,-0.000209498417943622,3.57941281366616e-05,5.69349990394767e-05
-8.10861635855534e-05,-0.000193965446589318,3.50631569993909e-05,6.92653165215198e-05
-8.31127216287089e-05,-0.000189363967738388,3.24448137728009e-05,7.33914278101323e-05
-8.88943725165351e-05,-0.000188207637560823,2.99742866187319e-05,7.22565557912959e-05
-9.00864654830972e-05,-0.000186097633010008,2.90622995180982e-05,7.14539125092677e-05
-8.98361259601191e-05,-0.000181889544838044,2.87062235471183e-05,7.33921259093671e-05
-9.28998048841837e-05,-0.000179553042623582,2.72204917032834e-05,7.46343352997753e-05
-9.80138837107351e-05,-0.000182509433180656,2.41678799174171e-05,7.00456730839758e-05
-0.000102412706757349,-0.000191533576937531,1.92832735468136e-05,5.90875184738787e-05
-0.000111317641217568,-0.000201749813660968,1.08367611517324e-05,4.60786171378108e-05
-0.000127553947422144,-0.00021320582706963,-3.14967324835731e-06,3.44070147588065e-05
-0.000147867211572362,-0.000223660482386379,-2.23055658758457e-05,2.37011432439467e-05
-0.000167131433912005,-0.000230336202999127,-4.32773200073713e-05,1.38209134306742e-05
-0.000187742721303864,-0.000235795988785981,-6.10168706348341e-05,7.53277116193814e-06
-0.000199735176547478,-0.000237464918939168,-7.0518564066627e-05,5.92566203466491e-06
-0.000195956241843476,-0.000238728537483724,-6.95301521522809e-05,4.7372745163915e-06
-0.000189864646784344,-0.000240612044370892,-6.14776553243907e-05,2.72265122267299e-07
-0.000185775767909036,-0.000244057193044257,-5.39963421865147e-05,-3.27646911975693e-06
-0.000182616721547647,-0.000239944472309618,-5.17472595296961e-05,1.63835480609965e-06
-0.000180983554183457,-0.000227522863598041,-5.14032389363764e-05,1.49161595548131e-05
-0.000179767619357563,-0.000210928929503496,-4.64002451541288e-05,2.84866591696975e-05
-0.000170612345374366,-0.000204217446101752,-3.58707607941339e-05,3.69156816066123e-05
-0.000158059606436468,-0.000201666367153309,-2.5376040857507e-05,4.14926259117261e-05
-0.000153350839218547,-0.000199127209134532,-1.87297618002929e-05,4.26290106875539e-05
-0.000149142751046583,-0.000206279766933904,-1.3045102491791e-05,3.60715145062935e-05
-0.000140535839828005,-0.000223660482386379,-3.2908474134916e-06,2.0735017965065e-05
-0.000125324733574673,-0.000240218653691927,1.15041445546603e-05,3.91811995545905e-06
-0.000108540064605478,-0.000253283992605447,2.81848759577501e-05,-6.55736512248285e-06
-9.75012837351134e-05,-0.000257718578441058,4.22170371588599e-05,-1.05748727622281e-05
-9.21130235262527e-05,-0.000257873550526711,4.82959760833219e-05,-1.09860030832987e-05
-9.69171581814979e-05,-0.000257253662184099,4.19440466850734e-05,-5.85321320481256e-06
-0.000115442282881873,-0.000244748606964863,2.47065392349221e-05,7.31372448998517e-06
-0.000136756905124003,-0.000229275240258887,6.02695771311984e-06,2.28341639634281e-05
-0.000146925458128778,-0.000224089635854342,-4.17708155299821e-06,3.06941770724034e-05
-0.000145852574458872,-0.000229561342570862,-4.62083894885346e-06,2.88984257494924e-05
-0.000145280369834922,-0.000233244909837539,-1.77447013025918e-06,2.518456432599e-05
-0.00014610291398185,-0.000234854235342397,-9.90132564558347e-07,2.56723300751744e-05
-0.000146925458128778,-0.000235891356223306,-1.80330586847649e-06,2.77051494750687e-05
-0.000145137318678934,-0.000240039839746942,-1.43080263581645e-06,2.53739247857253e-05
-0.000145077714030606,-0.000251269355491957,9.43800122191535e-07,1.678107009353e-05
-0.000143885621064044,-0.000266301647800305,4.23154851815274e-06,3.32132118402823e-06
-0.000139403351509771,-0.000285792367803596,7.03425906909231e-06,-1.40931603074536e-05
-0.000138163574824546,-0.00031055213871909,8.31596535187979e-06,-3.46591740360498e-05
-0.00014005900264138,-0.000332009812117208,8.53427742622864e-06,-5.53178752138098e-05
-0.000140154370078705,-0.000350666067043904,1.03569162296287e-05,-7.13211979070445e-05
-0.000131928928609427,-0.00036085846190801,1.57723853706034e-05,-7.93145947185907e-05
-0.000127029426516856,-0.000365567229125931,2.19168912802179e-05,-7.99856733492338e-05
-0.000129926212425602,-0.000364601633823015,2.23852289151964e-05,-7.83346682135895e-05
-0.000136435040023031,-0.000368714354557654,1.40488636420247e-05,-8.00832383116587e-05
-0.00014917851383558,-0.000378763698265773,9.14920910818945e-07,-8.59406162493719e-05
-0.000162422666694085,-0.000384175800333965,-9.71001608408546e-06,-9.04539407803769e-05
-0.000166189680468421,-0.000384199642193296,-1.34197145726592e-05,-8.83656736364155e-05
-0.00016281605737305,-0.000380170367966316,-1.06482315013881e-05,-8.02878700262587e-05
-0.000157809266913489,-0.000370454810288835,-4.49970087783129e-06,-6.95103006906777e-05
-0.000151801118362017,-0.000358271620170571,2.14154342287168e-06,-5.57984996332946e-05
-0.000145947941896197,-0.000343871137134501,8.50889190280094e-06,-3.69665603336498e-05
-0.000138473518995852,-0.000322902221852673,1.55731980503767e-05,-1.5202384812595e-05
-0.00013238192393672,-0.000306177157531807,2.28311007256935e-05,3.59716255797394e-06
-0.000129830844988277,-0.000295054930153783,2.61731342450545e-05,1.70567789871666e-05
-0.000133466728536292,-0.000285983102678245,2.16652467841529e-05,2.83210688351181e-05
-0.000144410141969332,-0.00027695895892137,1.17564691321529e-05,4.05728372670597e-05
-0.000152838239242926,-0.000262892261915938,4.53822666937384e-06,5.41072018406973e-05
-0.00015119315094907,-0.000250709071797673,5.28453803802759e-06,6.89223824462217e-05
-0.000145328053553584,-0.000239372267685668,1.11353707287419e-05,8.45630867304121e-05
-0.000143039235057785,-0.000228071226362659,1.55817343246129e-05,9.60563208648717e-05
-0.000142383583926176,-0.000227522863598041,1.55309218090879e-05,9.5904750442895e-05
-0.000144755848929635,-0.00024565459761945,1.2015618112675e-05,8.32120877516115e-05
-0.000152218350900313,-0.000264155880460494,6.82335459419594e-06,6.62360941565515e-05
-0.000157761583194827,-0.000277555005404651,1.57406707543582e-06,5.24959701232654e-05
-0.000159072885458045,-0.000291013734997137,-1.74487418386684e-06,4.02096705579979e-05
-0.000161683569054816,-0.000312137622364618,-2.69717215737414e-06,2.31084877620766e-05
-0.000163900861972622,-0.000336611290968137,-3.85548597290662e-06,3.5545296725162e-07
-0.000165653238633468,-0.000358116648084918,-7.42083708361218e-06,-2.23978542906164e-05
-0.000170075903539413,-0.000377047084393924,-1.13790507835379e-05,-3.95932285330591e-05
-0.000172257433668222,-0.000392079376702271,-1.21841572909313e-05,-4.96856653129221e-05
-0.000169515619845129,-0.000395619892812961,-1.05905967419868e-05,-5.40066692424585e-05
-0.000170135508187742,-0.000396394753241226,-1.13302447991369e-05,-5.49844676114331e-05
-0.000175714503271252,-0.00039877893917435,-1.68866889565704e-05,-5.47825834070855e-05
-0.000184726726098461,-0.000401425385560118,-2.4751508640796e-05,-5.35446170087044e-05
-0.000189566623542704,-0.000396060967210589,-3.12384893630763e-05,-4.94657379809711e-05
-0.000193035614075399,-0.000387549423429336,-3.49893508567208e-05,-4.10710748271987e-05
-0.000195276748852536,-0.000378441833164801,-3.60797554015196e-05,-2.76641706551439e-05
-0.000193381321035702,-0.000360727331681688,-3.46641195792412e-05,-7.99008562789569e-06
-0.000188851367762766,-0.00033330919345076,-3.15892811441502e-05,1.72980857125142e-05
-0.000185179721425755,-0.00031207801771629,-2.78483097533911e-05,4.10187947887676e-05
-0.000181043158831785,-0.000303649920442696,-2.26676641226368e-05,5.29075426197812e-05
-0.000172293196457219,-0.000305759924993511,-1.49300640470743e-05,5.08074700142472e-05
-0.000162506113201744,-0.000312411803746927,-7.25312388331586e-06,4.36627520468754e-05
-0.000161719331843813,-0.000319683570842956,-5.08608127317884e-06,3.98370113284069e-05
-0.000166833410670365,-0.000323820133436926,-9.87191084507958e-06,3.7591069419331e-05
-0.000171029577912663,-0.000328862686685484,-1.62626509309873e-05,3.17850143516224e-05
-0.000172197829019894,-0.000338578244362965,-1.83766263941449e-05,2.43704404175631e-05
-0.000170934210475338,-0.000343644639470854,-1.58126040404498e-05,2.10305582933106e-05
-0.000165522108407146,-0.000344741365000091,-1.09862668593961e-05,2.12588374944201e-05
-0.000156641015806259,-0.000346970578847562,-4.07090854065946e-06,1.98238500154329e-05
-0.000146067151192853,-0.000352287313478429,5.36627031462224e-06,1.58000242288915e-05
-0.000139260300353783,-0.000358831903864855,1.43320432476182e-05,1.1921133901954e-05
-0.000132632263459698,-0.000364434740807697,1.89515937028365e-05,6.30803231994957e-06
-0.000129449375238977,-0.00037909748429641,1.99496690648804e-05,-6.31978535557857e-06
-0.000129425533379646,-0.000398957753119335,2.10830998205423e-05,-2.4877818123345e-05
-0.000127077110235519,-0.000417220617367066,2.27321155498316e-05,-4.17028190823753e-05
-0.000127148635813513,-0.000430429007436574,2.16840385221028e-05,-5.30416358840038e-05
-0.000130236156596908,-0.000439000155866155,1.74866187756528e-05,-6.14419493500319e-05
-0.00013208390069508,-0.000446617629922487,1.45900909267532e-05,-6.64679139008844e-05
-0.000130379207752896,-0.000444352653286019,1.70744341781275e-05,-6.27513600770941e-05
-0.000121963031408967,-0.000432992007314682,2.45451691320844e-05,-5.08418738097048e-05
-0.000110042101743347,-0.000423991705417139,3.38186508696712e-05,-4.03468631800253e-05
-0.000103151804396618,-0.000422155882248633,4.14313587763355e-05,-3.62391469644108e-05
-0.000100243097558206,-0.000417435194101047,4.44222073588866e-05,-3.0362382037577e-05
-0.000100529199870181,-0.000401210808826137,4.26242980778159e-05,-1.42516954048978e-05
-0.000100600725448175,-0.000383329414327706,4.05661100520426e-05,6.40620404373103e-06
-9.95039999189377e-05,-0.000372171424160685,4.26404265340123e-05,1.93147036411699e-05
-9.59158000895858e-05,-0.000368034861566714,4.56228142163047e-05,2.31214423629344e-05
-9.89794790136503e-05,-0.000364863894275659,4.1122455084425e-05,2.78332727288211e-05
-0.000111770636544862,-0.00035538675519149,2.72316439628877e-05,3.96220881468518e-05
-0.000126731403275216,-0.000341594239568367,1.23884074324703e-05,5.3905621611039e-05
-0.00013409853780857,-0.000332891960912464,4.62178530699408e-06,6.31598336985094e-05
-0.0001360297284144,-0.000332880039982798,1.74004645900095e-06,6.42012856179082e-05
-0.000140237816586364,-0.000341546555849704,-4.03673987032803e-06,5.77324003517114e-05
-0.000152611741579279,-0.000351917764658795,-1.5850690107123e-05,4.7510780253299e-05
-0.00016703606647468,-0.000358951113161511,-3.06951126282369e-05,4.03290637389042e-05
-0.00017893315428097,-0.000360727331681688,-4.43259479163131e-05,4.04109777692527e-05
-0.00018854142359146,-0.000359261057332817,-5.32331470705989e-05,4.31792673122902e-05
-0.000188481818943132,-0.000361156485149651,-5.51171300774944e-05,4.04718988955538e-05
-0.000186157237658336,-0.000369954131242879,-5.22199435532923e-05,3.21587662710477e-05
-0.000185191642355421,-0.000378322623868145,-5.13325864545889e-05,2.59425081682251e-05
-0.000187897693389517,-0.000377976916907842,-5.57768541942416e-05,2.47533267801864e-05
-0.000191915046686831,-0.000382351898095125,-6.03198436683925e-05,2.16591424680774e-05
-0.000191164028117897,-0.00039387943708178,-5.89312090130042e-05,1.0006398611205e-05
-0.000186157237658336,-0.000411319757182584,-5.38706910752449e-05,-7.62989202342286e-06
-0.000180828582097803,-0.000427675272683815,-5.04982488886567e-05,-2.39228858568483e-05
-0.000175535689326268,-0.000439596202349436,-4.63693404374856e-05,-3.49768518602603e-05
-0.000166046629312434,-0.000443482425420429,-3.42148415070573e-05,-4.09548895896097e-05
-0.000145614155865559,-0.000446450736907168,-1.4839942825312e-05,-4.37039593793637e-05
-0.000125885017268957,-0.000451159504125089,2.02482840708804e-06,-4.71746374455331e-05
-0.000117707259518341,-0.000456190136443981,1.10294480153387e-05,-5.5167951789086e-05
-0.000113630301572698,-0.000466215638292768,1.70512679854993e-05,-6.47101501172519e-05
-0.000104415422941173,-0.000467228917314346,2.52186458771456e-05,-6.6430710305761e-05
-9.34124048598054e-05,-0.000454950359758756,3.29793165985491e-05,-5.60120327293587e-05
-9.15646607616341e-05,-0.000440776374386333,3.63466562331669e-05,-4.07691057863325e-05
-9.33408792818117e-05,-0.000426828886677556,3.74983635042165e-05,-2.96990909979459e-05
-8.70466284183638e-05,-0.000415933156963179,4.0798615673482e-05,-2.12441205309449e-05
-7.95602845883539e-05,-0.000404405617976523,4.58925386300421e-05,-7.39602405533029e-06
-7.80582474504857e-05,-0.000381481670229534,4.99568883273711e-05,1.29935491474663e-05
-7.75933311935264e-05,-0.000357759020194949,5.32515801208157e-05,3.2199434710089e-05
-6.87122385926389e-05,-0.00034683944862124,5.72815213977632e-05,4.37140763163073e-05
-6.5124038763287e-05,-0.00034452678826611,5.99258239898639e-05,4.73410835264726e-05
-7.24911732966407e-05,-0.000341796895372682,5.72604488846545e-05,4.40513324052556e-05
-7.987022875966e-05,-0.000351691266995148,4.88883053988658e-05,3.28029047233552e-05
-8.76665167609761e-05,-0.000368785880135648,3.77554744490508e-05,1.50786432888431e-05
-0.000100517278940515,-0.000386738800212073,2.61356796526465e-05,-2.52175906439924e-06
-0.000113701827150692,-0.000392901920849199,1.51248621315194e-05,-1.39964010886684e-05
-0.000121998794197964,-0.000395166897485667,6.35020961152291e-06,-2.01081913129077e-05
-0.000125682361464641,-0.000405359292349773,3.04091130825494e-07,-2.66945733867407e-05
-0.000132799156475017,-0.000413858915201361,-6.06922567643228e-06,-3.84899924659656e-05
-0.000145602234935894,-0.000424277807729113,-1.65290527726304e-05,-5.59225583779918e-05
-0.000158917913372392,-0.000446319606680847,-3.05591998520865e-05,-7.59849682420332e-05
-0.000169968615172423,-0.000463342694243353,-4.39363866599086e-05,-9.41139249833397e-05
-0.000181186209987772,-0.000470984010159016,-5.36753314459053e-05,-0.000105645139719655
-0.000189352046808722,-0.000468945531186195,-5.97052291024667e-05,-0.000106859996369333
-0.000189960014221669,-0.000457596806144524,-6.21431365186962e-05,-9.58242778814979e-05
-0.000186657916704292,-0.000433969523547263,-5.99007539161271e-05,-7.38027691364892e-05
-0.000181567679737072,-0.000403714204055917,-5.2583554065123e-05,-4.6510323966412e-05
-0.000171029577912663,-0.000377583526228876,-4.18905157006797e-05,-2.18421591940345e-05
-0.000158178815733124,-0.000356066248182431,-3.03888160654668e-05,-3.92008534093076e-06
-0.000148272523180993,-0.000342655202308607,-1.93971563506862e-05,9.85597993312563e-06
-0.000136780746983334,-0.000328075905327553,-7.79273066594722e-06,2.41001381748908e-05
-0.000121605403518999,-0.00030671359936676,7.0600933125166e-06,3.9300712721382e-05
-0.000104045874121539,-0.000292980688391965,2.55231519740647e-05,5.27838193377359e-05
-8.77261214093042e-05,-0.000284230726017399,4.22728343021252e-05,6.38096634080788e-05
-7.88807915974135e-05,-0.000270414368534945,4.91493083339552e-05,7.3485097853543e-05
-8.69870237700357e-05,-0.000260579601560807,4.31144358289352e-05,8.01637618136744e-05
-0.000102066999797046,-0.000261509434074726,2.93431630306315e-05,7.98154814175242e-05
-0.000114166743407651,-0.000269758717403335,1.48304705146738e-05,7.2433983941485e-05
-0.000127351291617828,-0.000276458279875414,1.74380907967419e-06,6.42121587433034e-05
-0.000142347821137179,-0.000274229066027943,-1.02849804803672e-05,6.09352102505561e-05
-0.000149774560318861,-0.000277137772866355,-1.85326340953006e-05,6.16877456031786e-05
-0.000147795685994368,-0.000279486196010482,-1.88526302571192e-05,6.13709452702124e-05
-0.000143826016415716,-0.000277829186786961,-1.21271377964649e-05,5.76233118278769e-05
-0.000136196621429719,-0.000281679647068956,-4.32997321619568e-06,5.29201207261932e-05
-0.000131022937954839,-0.000288522260697023,5.37359217125484e-07,5.07353598437284e-05
-0.000126791007923544,-0.000286746042176845,3.90064644590084e-06,5.15827071284044e-05
-0.000123965747592792,-0.000282537954004881,8.00123758978249e-06,5.28792710639494e-05
-0.000121724612815655,-0.000284504907399708,1.1251742144245e-05,5.19227228327546e-05
-0.000121748454674986,-0.000291502493113428,1.02846949947035e-05,4.88071778224029e-05
-0.000126934059079531,-0.000293421762789593,4.64546856834348e-06,4.58041929340519e-05
-0.000135743626102425,-0.000295186060380105,-2.54912068680058e-06,4.31830208973884e-05
-0.000141274937467273,-0.000302934664662758,-7.73181956251704e-06,3.71334203816069e-05
-0.00014188290488022,-0.000318872947625694,-9.40264367690391e-06,2.42776482172629e-05
-0.000141179570029948,-0.000336813946772453,-8.26522849640474e-06,7.36081074437635e-06
-0.000140285500305027,-0.000349664708951992,-6.05573905562967e-06,-7.10240829277234e-06
-0.000137877472512571,-0.000362896940880832,-4.21129579625946e-06,-1.70835176087154e-05
-0.000136744984194337,-0.000376844428589608,-3.11318633053265e-06,-2.69283415448171e-05
-0.000136303909796709,-0.000389218353582522,-2.2021734524137e-06,-3.96237925599592e-05
-0.000135004528463157,-0.000401353859982125,-3.62456750033776e-07,-5.15231217001363e-05
-0.000130796440291193,-0.00041230919434483,3.68004274464699e-06,-5.80409130852642e-05
-0.00012470484523206,-0.000419092203324568,1.00776335597573e-05,-6.13166890136575e-05
-0.000118279464142291,-0.000425028826298048,1.62632161026278e-05,-6.78217652436932e-05
-0.000117802626955666,-0.000439918067450408,1.79608252230518e-05,-7.99478823651989e-05
-0.000121939189549636,-0.000457644489863186,1.32552199393423e-05,-9.40449949037305e-05
-0.000130379207752896,-0.000472641019382538,4.92504653338651e-06,-0.000105508691387604
-0.000138092049246553,-0.000479066400472307,-2.51781149093197e-06,-0.000111003767661993
-0.000143909462923376,-0.000475728540165933,-7.118209541425e-06,-0.00010607263598065
-0.000144672402421975,-0.000462019471050469,-9.26989596758953e-06,-8.67779877254502e-05
-0.000144565114054985,-0.000435459639755466,-8.63534811942618e-06,-5.66662672867907e-05
-0.000141716011864901,-0.000405478501646429,-4.35025977514074e-06,-2.77348233431496e-05
-0.000134766109869844,-0.000391876720897956,1.46751956332723e-06,-1.00642337592305e-05
-0.000133204468083648,-0.000391280674414675,3.39162075726097e-06,-2.26114239396593e-06
-0.00013880730502649,-0.000383746646866002,-2.18029741136275e-06,4.46350329843613e-06
-0.000150632867254786,-0.000374627135671802,-1.26268131808664e-05,1.47310545553033e-05
-0.000157940397139811,-0.000370800517249138,-2.1328534414587e-05,2.59944221270798e-05
-0.000161051759782538,-0.000363218805981803,-2.39609707145208e-05,3.60943614630817e-05
-0.000159013280809717,-0.000350987932144876,-2.14447838572668e-05,4.78167069561104e-05
-0.000154674062411431,-0.000340437909390802,-1.65850272143598e-05,6.35223264924148e-05
-0.000146532067449812,-0.000328564663443843,-9.19589370570534e-06,7.95902498777249e-05
-0.000133502491325288,-0.000319445152249643,3.51543558116628e-06,9.01420030832766e-05
-0.000117552287432688,-0.000317931194182109,2.11840149211479e-05,9.40335062160148e-05
-0.000100719934744831,-0.00032081605916119,3.70821194304174e-05,9.43621561155511e-05
-9.41991862177364e-05,-0.000326573868189685,4.35740441497305e-05,9.25556725281412e-05
-9.67860279551761e-05,-0.000333631058551732,4.05106918225865e-05,8.72012842244954e-05
-0.000103974348543546,-0.000343859216204835,3.50743468110736e-05,7.83105654742587e-05
-0.000105643278696732,-0.000358295462029902,3.26136342249491e-05,6.82441718391951e-05
-0.000105512148470411,-0.000371265433506097,3.12366145077391e-05,5.74300099023538e-05
-0.000111353404006565,-0.000386858009508729,2.74144365249575e-05,4.31148079515714e-05
-0.000116097934013482,-0.00040836336662551,2.28617381536638e-05,2.4098818003818e-05
-0.000115609175897192,-0.000432002570152436,2.13809592287884e-05,3.25259223910301e-06
-0.00011683703165275,-0.000453293350535235,2.10946566221863e-05,-1.68374663575897e-05
-0.000123822696436804,-0.00047576430295493,1.52093801881747e-05,-3.7399569157313e-05
-0.000137269505099625,-0.000500464469222097,5.72986455785514e-07,-5.97239848434273e-05
-0.000155735025151671,-0.000521802933323558,-1.88844227535861e-05,-8.07791046224122e-05
-0.000176954279956477,-0.000539541276666002,-3.75937123555469e-05,-9.6232410775327e-05
-0.000190222274674313,-0.000550758871481351,-5.26609195527603e-05,-0.000105598573401585
-0.000198900711470885,-0.000555646452644256,-6.1552404603985e-05,-0.000110167600842778
-0.000198876869611554,-0.000553035769047485,-6.05647636432988e-05,-0.000107524066379665
-0.00018728972597657,-0.000541830095161801,-4.94088400395573e-05,-9.34807767293756e-05
-0.000172436247613206,-0.000519228012515784,-3.46420636769504e-05,-6.96406516260185e-05
-0.000162017355085454,-0.000490903883630269,-2.46393930220057e-05,-4.39713876265259e-05
-0.000159764299378651,-0.000471079377596341,-2.18699618339919e-05,-2.21589269015614e-05
-0.000160646448173907,-0.000454294708627147,-2.24406406188983e-05,-2.23420697888268e-06
-0.000159335145910689,-0.000428605105197734,-2.19587245927344e-05,2.03535231691862e-05
-0.000156247625127293,-0.000402176404129052,-1.91232442030068e-05,4.59099577322758e-05
-0.000153160104343897,-0.000380289577262972,-1.44869915296738e-05,7.103882959826e-05
-0.000146615513957471,-0.000358247778311239,-8.95729609428607e-06,9.23235664103151e-05
-0.000141251095607942,-0.000342166444192317,-3.9367439324672e-06,0.00010570746370065
-0.000138485439925518,-0.000342977067409579,-5.21993101151488e-07,0.000104990862023096
-0.000136280067937378,-0.000363576433871772,2.10133149336986e-06,8.66399117289043e-05
-0.000132656105319029,-0.000390684627931394,5.50743158681248e-06,5.66833156210854e-05
-0.000128912933404024,-0.00041701796156275,8.64570025853231e-06,2.81334087914618e-05
-0.000130856044939521,-0.000438380267523543,7.81390785538137e-06,8.51554886713081e-06
-0.000137269505099625,-0.00045319798309791,1.60944823277137e-06,-8.02527479094321e-06
-0.000144183644305685,-0.000477242498233467,-5.61370504466611e-06,-3.32142702785426e-05
-0.000146198281419175,-0.000511086017554165,-7.49129148953825e-06,-6.99582298204524e-05
-0.000142109402543867,-0.000550818476129679,-2.61825202784857e-06,-0.000108248021887598
-0.000135397919142122,-0.00057684186558973,4.0991814136295e-06,-0.000136202041316746
-0.000132691868108026,-0.000589203869652979,7.40261680527729e-06,-0.000151542279750153
-0.000132703789037692,-0.000596344506522686,7.33603834449053e-06,-0.000159230452762559
-0.000132167347202739,-0.000597488915770585,8.03765848155175e-06,-0.000160861958558567
-0.000129139431067671,-0.000587058102313167,1.23092106971783e-05,-0.000152566140514644
-0.000122988231360211,-0.00056532624753274,1.90862481387541e-05,-0.00013385905283526
-0.000115084654991904,-0.000542902978831707,2.57339681825893e-05,-0.000111809075087123
-0.000111591822599877,-0.000523257286742764,3.09114490833724e-05,-9.21232451937676e-05
-0.000109314925033744,-0.000497257739142045,3.47990853733426e-05,-7.07616994129284e-05
-0.000104999548494789,-0.000465178517411859,3.80382226234189e-05,-4.02347252364398e-05
-0.000102233892812365,-0.000427508379668497,4.12375439551956e-05,-1.36715506959708e-06
-0.000100982195197475,-0.000385379814230193,4.44818996239063e-05,3.77427282508957e-05
-9.90867673806409e-05,-0.00034588577424799,4.66128875880232e-05,7.27416047793113e-05
-0.000100040441753891,-0.000315010566414032,4.58826842552332e-05,0.000105131896312497
-0.000104629999675155,-0.000286197679412227,4.18474523523582e-05,0.000133051611321261
-0.000112259394661152,-0.000265514866442374,3.55196229623066e-05,0.000148886513655849
-0.000121593482589333,-0.000262904182845603,2.71666789631529e-05,0.000150301758155164
-0.00013344288667696,-0.000267457977977871,1.56822937466093e-05,0.000146856088344797
-0.000147628792979049,-0.000261735931738373,1.40395966052633e-06,0.000149620817794308
-0.000163352499208003,-0.000249052062574152,-1.21480136053814e-05,0.000158259243400653
-0.000173699866157762,-0.000244843974402188,-2.14271825142228e-05,0.000163779605384845
-0.000178241740360364,-0.000246787085937684,-2.6709747216576e-05,0.000160475592558471
-0.00018345118662424,-0.000255000606477297,-3.05501908709315e-05,0.000149032478060862
-0.000187921535248848,-0.000271737591727828,-3.3160907286277e-05,0.000130540931275164
-0.000187051307383258,-0.000298309343952497,-3.20638224551219e-05,0.000104891766735434
-0.000181484233229413,-0.000324964542684826,-2.64086784379046e-05,7.52440766716284e-05
-0.000175654898622924,-0.000350558778676914,-1.89204247206502e-05,4.78307321846365e-05
-0.000170433531429382,-0.000372302554387006,-1.26241717884162e-05,2.57059268957236e-05
-0.000165712843281796,-0.000389575981472491,-7.75348976992082e-06,7.03715199329791e-06
-0.000162208089960104,-0.000404477143554517,-3.11091337075342e-06,-9.33778454146565e-06
-0.000158655652919749,-0.000414752984926282,1.27156848391641e-06,-2.11918224925185e-05
-0.00015598536467465,-0.000420594240462437,4.47317762371939e-06,-2.76820597262228e-05
-0.000155067453090397,-0.000424551989111423,6.71095494240787e-06,-3.28957847456835e-05
-0.000152933606680251,-0.000432455565479729,9.41370181351836e-06,-4.16123186476856e-05
-0.000148940095242268,-0.000441670444111254,1.32915020903429e-05,-5.35905504340958e-05
-0.000147128113933093,-0.000453841713299853,1.70552770828057e-05,-6.43977817908051e-05
-0.000146555909309143,-0.000458133247979477,1.81348652425483e-05,-7.05921537948912e-05
-0.000149512299866217,-0.000457561043355527,1.46922735809828e-05,-7.24577745837298e-05
-0.000159072885458045,-0.000458312061924461,7.18059092718791e-06,-7.28325426141088e-05
-0.000168633471049873,-0.000460243252530292,-2.58655184654709e-06,-7.47553750783034e-05
-0.000181281577425097,-0.000462639359393082,-1.46073355789659e-05,-7.95872700787446e-05
-0.0001994848370245,-0.000467622307993311,-3.17548113364746e-05,-8.64039261648118e-05
-0.000222969068465773,-0.000476014642477908,-5.52881491770376e-05,-9.33245789017976e-05
-0.000247252002194643,-0.000481057195726466,-7.930723029072e-05,-9.90784078618621e-05
-0.000261926666613022,-0.00048123600967145,-9.27915862204657e-05,-0.000102351824081631
-0.000258743778392302,-0.000478434591200029,-8.93866859234585e-05,-0.000100654320793539
-0.000243091597741341,-0.000473165540287825,-7.39537732213684e-05,-9.24013454795759e-05
-0.000226974500833422,-0.00045886042468908,-5.75172906698929e-05,-8.02506697439814e-05
-0.000216686738531991,-0.000443768527732404,-4.62713940093331e-05,-6.97604066049303e-05
-0.000208151352891407,-0.000440144565114055,-3.70389177014849e-05,-6.37993323000176e-05
-0.000192391883873456,-0.000439703490716427,-2.29552021105685e-05,-6.01470326645362e-05
-0.00017144681045096,-0.0004278540866288,-1.6135799854479e-06,-5.5027958579155e-05
-0.000150251397505486,-0.000418150449880984,2.28999027339515e-05,-4.66338313313114e-05
-0.000125432021941663,-0.000411891961806533,4.45166377476044e-05,-3.46152788941984e-05
-0.00010886192970645,-0.000393795990574121,6.02202878415127e-05,-1.92824602488773e-05
-0.000102424627687015,-0.000371933005567372,7.05001318305336e-05,-3.00739524808195e-06
-9.52243861689798e-05,-0.000361883661859254,7.59169980340508e-05,1.06785576706767e-05
-9.45448931780394e-05,-0.000352835676243047,7.48794481285284e-05,2.22145757956437e-05
-0.000104868418268467,-0.000331687947016236,6.59198304332865e-05,3.7789591140318e-05
-0.000120282180326115,-0.000307035464467732,5.15365699783008e-05,6.20562885235322e-05
-0.000131833561172102,-0.000282549874934547,3.79385716170577e-05,8.98726762898169e-05
-0.000139915951485393,-0.000261712089879041,2.99845510291034e-05,0.00010924491495649
-0.000143373021088423,-0.000255191341351947,2.69286288954901e-05,0.000113316184946451
-0.00014610291398185,-0.000262403503799647,2.38031205054973e-05,0.000106703890270181
-0.000152874002031922,-0.000272071377758466,1.67519371406147e-05,9.89671952411494e-05
-0.000162172327171107,-0.000274848954370556,6.7333628722333e-06,9.43275805937502e-05
-0.000170278559343729,-0.000278520600707567,-1.68148745047773e-06,8.96308375436521e-05
-0.000174188624274053,-0.000289034860672644,-4.84665245581359e-06,8.05996769961334e-05
-0.00017125607557631,-0.000302350539109143,-3.4178854570985e-06,6.73210886501196e-05
-0.000168657312909205,-0.00031583311056096,-1.16688472359453e-06,5.34273914794685e-05
-0.000168192396652245,-0.000326752682134669,-6.70173360476502e-07,4.17041553517381e-05
-0.000168609629190542,-0.000338506718784971,-1.23542053935846e-06,3.14604229279785e-05
-0.000167930136199602,-0.00035105945772287,-1.5639312687005e-06,1.96702645952632e-05
-0.00016828776408957,-0.000364565871034018,-2.71787479403703e-06,4.26588782779613e-06
-0.000172674666206519,-0.000383520149202356,-6.44119059057023e-06,-1.32409961361668e-05
-0.000176930438097145,-0.000399971032140912,-1.15691592032465e-05,-2.80736253769416e-05
-0.000178837786843645,-0.000406849408557976,-1.48854464821224e-05,-3.56921694150178e-05
-0.000180029879810207,-0.000405919576044057,-1.55700593580405e-05,-3.56427412731368e-05
-0.000180327903051847,-0.000405573869083754,-1.60484603725565e-05,-3.16988667501753e-05
-0.000180435191418838,-0.000400888943725165,-1.77998254295735e-05,-2.77506785545629e-05
-0.000181376944862422,-0.000396943116005845,-1.90805559358679e-05,-2.4069323286774e-05
-0.000181126605339444,-0.000392806553411874,-1.80866839830895e-05,-1.83738164033391e-05
-0.00017740727528377,-0.000385928176994811,-1.58037664091086e-05,-9.86483798615704e-06
-0.000173938284751075,-0.000376927875097267,-1.3861838855299e-05,-6.46060400218562e-07
-0.000173056135955819,-0.000369560740563914,-1.1835750069862e-05,6.69767391096772e-06
-0.000169956694242757,-0.000367033503474802,-9.11126755466493e-06,1.10141676129601e-05
-0.000165987024664105,-0.000368654749909326,-7.66556723444329e-06,1.15607307435124e-05
-0.000168871889643186,-0.000372719786925303,-9.95546632554278e-06,7.12865076234372e-06
-0.000174021731258734,-0.000382268451587465,-1.46546061314287e-05,-2.26827663355032e-06
-0.000174844275405662,-0.000397694134574779,-1.72110793279304e-05,-1.40140585151057e-05
-0.000171649466255275,-0.000408422971273838,-1.48207803434175e-05,-2.47092363338645e-05
-0.000165498266547815,-0.000417315984804391,-8.99551401485382e-06,-3.27500823919462e-05
-0.000160753736540898,-0.000423276449637201,-3.22990593246986e-06,-3.82999637569338e-05
-0.000155162820527722,-0.000431072737638517,1.22488226400035e-07,-4.20170037214085e-05
-0.000153100499695569,-0.000433194663118998,6.16426165829544e-07,-4.5051950495933e-05
-0.000156903276258902,-0.000438010718703909,-8.90585166239579e-07,-4.88164627583365e-05
-0.000157606611109174,-0.000444877174191306,-3.10618242092996e-06,-5.29263073542569e-05
-0.000157499322742183,-0.000447070625249781,-5.46409349791984e-06,-5.45686571096922e-05
-0.000161516676039498,-0.00044600966250954,-8.29791424350807e-06,-5.19211053809065e-05
-0.000164186964284597,-0.000442278411524201,-1.09991119965221e-05,-4.70833797686734e-05
-0.000162470350412747,-0.000439262416318799,-1.08233519128806e-05,-4.32081741133922e-05
-0.000155758867011003,-0.000438129928000565,-5.38193783112656e-06,-3.94016652250731e-05
-0.000147342690667074,-0.000430727030678214,3.76981101220126e-06,-3.0912197889823e-05
-0.00013891459339348,-0.000412750268742458,1.18091021723709e-05,-1.41149309655879e-05
-0.000133895882004254,-0.000392639660396556,1.53053755623457e-05,1.05686253707917e-05
-0.00013344288667696,-0.000364279768722043,1.50191793792254e-05,3.96871088821286e-05
-0.000134575374995194,-0.000334489365487657,1.40184717696636e-05,6.80637924953185e-05
-0.00013458729592486,-0.000315821189631295,1.4402158923091e-05,9.00094314955683e-05
-0.000130045421722258,-0.000305795687782507,1.61340775791604e-05,0.000102577824403985
-0.000128555305514056,-0.000298988836943438,1.78214269750797e-05,0.000107614332564032
-0.000128912933404024,-0.000299966353176019,1.81733961173875e-05,0.000107917376769109
-0.0001284360962174,-0.000310230273618118,1.7468097899194e-05,0.000102208185869183
-0.000126314170736919,-0.000321912784690427,1.75939575871976e-05,8.76106493864692e-05
-0.000124502189427745,-0.000345039388241731,1.99092112278078e-05,6.65028970753898e-05
-0.000121653087237661,-0.000367724917395408,2.36294768853251e-05,4.59996135461687e-05
-0.000115144259640232,-0.000383818172443996,2.75247846526204e-05,2.97975021105399e-05
-0.000109851366868697,-0.000398528599651372,3.21396141417666e-05,1.51395394889569e-05
-0.00010502339035412,-0.00041671993832111,3.78142478505865e-05,-9.93601601387514e-07
-0.000101518637032428,-0.000433766867742948,4.08534686355107e-05,-1.78203752986642e-05
-0.000105464464751748,-0.000450813797164786,3.52589882151139e-05,-3.49143435469715e-05
-0.000119459636179187,-0.000471675424079622,2.01052489864868e-05,-5.47623478288118e-05
-0.000138366230628862,-0.000495481520621867,2.83511235532424e-06,-7.71881600781209e-05
-0.000147700318557043,-0.000512611896551364,-7.29553011259083e-06,-9.57777329931332e-05
-0.000145757207021547,-0.000522542030962827,-8.13517805635186e-06,-0.00010481262199533
-0.000143492230385079,-0.000526440174963485,-5.22073570654191e-06,-0.000106578736717941
-0.000144720086140638,-0.000524950058755282,-4.53822500004584e-06,-0.00010683918635996
-0.000144040593149697,-0.000522565872822158,-7.19917102284464e-06,-0.000105681603939079
-0.000147485741823062,-0.00051896575206314,-1.13814540833434e-05,-9.82999723089645e-05
-0.000155079374020062,-0.000502777129577227,-1.70208385787159e-05,-8.32703779329668e-05
-0.000163555155012319,-0.000480234651579538,-2.65179234686186e-05,-6.45100619521869e-05
-0.000175917159075568,-0.000465405015075506,-4.08638805106875e-05,-4.5396884865851e-05
-0.000192213069928471,-0.000445318248588934,-5.63758918737747e-05,-2.58753004329746e-05
-0.000202679646174887,-0.000422167803178299,-6.65405689171027e-05,-5.70597699159932e-06
-0.000202798855471543,-0.000403535390110933,-6.75336756531959e-05,1.36385181375677e-05
-0.000195634376742505,-0.000387406372273348,-6.12999465206092e-05,3.10230104999212e-05
-0.000187623512007207,-0.000370407126570173,-5.25995647860195e-05,4.63292092649834e-05
-0.00017874241940632,-0.000356447717931731,-4.39389280693409e-05,5.87114040523977e-05
-0.000169444094267136,-0.000348675271789746,-3.48768600906944e-05,6.69336867344415e-05
-0.000159418592418348,-0.000344657918492432,-2.56261330398568e-05,7.14300296784362e-05
-0.000152909764820919,-0.00033935310479123,-1.86520534989098e-05,7.37771352935583e-05
-0.000151062020722748,-0.000337922593231356,-1.56975490068682e-05,7.51803289128248e-05
-0.000148153313884337,-0.000335836430539872,-1.52291334452948e-05,7.79560352532689e-05
-0.000148677834789624,-0.00032438041713121,-1.43508082137629e-05,8.59542293352146e-05
-0.000147628792979049,-0.000312447566535924,-1.17710700375268e-05,9.88420053921449e-05
-0.000140535839828005,-0.000302422064687137,-7.26714218027478e-06,0.000107807445312143
-0.000133848198285591,-0.000304806250620261,2.2238473353149e-07,0.000102954707511762
-0.000125539310308654,-0.000323081035797658,1.13491265989403e-05,8.47642558109017e-05
-0.000110793120312281,-0.000344765206859422,2.3549657647683e-05,6.25809128325206e-05
-0.000102257734671696,-0.000362837336232503,3.19630615354478e-05,4.19029989600937e-05
-0.000103628641583242,-0.00038388969802199,3.38658668636228e-05,1.97578465488971e-05
-0.000105452543822082,-0.000410568738613649,3.0886675067652e-05,-6.41190804445057e-06
-0.000108790404128456,-0.000433921839828601,2.6624381580738e-05,-3.25833513843593e-05
-0.000114154822477986,-0.000453805950510856,2.35609528372355e-05,-5.38638745310405e-05
-0.000115358836374213,-0.000470054177645098,2.26690553983056e-05,-7.02333514402383e-05
-0.000113976008533001,-0.000480985670148472,2.43209917019715e-05,-8.30249033631959e-05
-0.0001098156040797,-0.000487077265207604,2.82891884086524e-05,-9.11476420434474e-05
-0.000106024748446032,-0.000490939646419266,3.34964808970796e-05,-9.47739208569346e-05
-0.000102078920726712,-0.000490772753403947,3.86606655383016e-05,-9.77374442246882e-05
-9.75847302427727e-05,-0.00049487355320892,4.29945715873411e-05,-0.000101762685345526
-9.46402606153643e-05,-0.00049370530210169,4.61371753489312e-05,-0.00010257283462495
-9.41395815694083e-05,-0.000485682516436727,4.81192219706738e-05,-9.60060362766988e-05
-9.43422373737238e-05,-0.000472545651945213,4.96934622433104e-05,-8.37046763410372e-05
-9.07898003333688e-05,-0.000455093410914744,5.18545231693746e-05,-6.8552654685257e-05
-8.97407585227942e-05,-0.000436723258300022,5.44949167417939e-05,-4.98589604017047e-05
-8.96930748041317e-05,-0.000412905240828111,5.61789191136405e-05,-2.9008550630287e-05
-9.0312963146744e-05,-0.000397479557840798,5.56631360214167e-05,-1.46109591845698e-05
-9.36865862421147e-05,-0.000396585488115876,5.29170788475799e-05,-1.35974212431562e-05
-9.90629255213097e-05,-0.000400328660030881,4.82818564405775e-05,-1.98624223930894e-05
-0.000106799608874298,-0.000398957753119335,4.16951766384032e-05,-2.00559239712833e-05
-0.000116360194466126,-0.000388002418756629,3.35201904040996e-05,-9.41735486563056e-06
-0.000124001510381789,-0.000372469447402325,2.50088334507954e-05,5.85653790732361e-06
-0.00013401509130091,-0.000354433080818241,1.66048950996558e-05,2.06021421947322e-05
-0.000145518788428234,-0.000338637849011293,6.53781598572644e-06,3.58184620707865e-05
-0.000159275541262361,-0.000324118156678567,-7.28192306856438e-06,5.13275177896093e-05
-0.000176274786965536,-0.000310421008492768,-2.42730006761334e-05,6.30356813464586e-05
-0.000195765506968826,-0.000299406069481735,-4.1746897718788e-05,7.06754593329754e-05
-0.000212693227094008,-0.000292253511682362,-5.83976250473662e-05,7.98226224194004e-05
-0.000228786482142596,-0.000280964391289019,-7.52045960972718e-05,9.16564050945445e-05
-0.000247907653326252,-0.000269615666247348,-9.20393331588674e-05,9.80587994361512e-05
-0.000260889545732113,-0.000275921838040461,-0.000105105972569829,9.26039372694128e-05
-0.000264334694405478,-0.000289940851327232,-0.000109468056801073,8.03394933691033e-05
-0.000261032596888101,-0.000298190134655841,-0.000103781114872033,7.01957915401362e-05
-0.000248849406769836,-0.000302720087928777,-9.16929610783854e-05,6.2797855165575e-05
-0.000234794630694069,-0.000314366836212089,-7.89850150037283e-05,5.33398650773867e-05
-0.000227165235708072,-0.000325548668238441,-6.97166706187305e-05,4.26906187791627e-05
-0.000222253812685836,-0.000329267998294115,-6.40321057993549e-05,3.65131912955719e-05
-0.000215578092073088,-0.000331711788875567,-5.85974046936132e-05,3.42138330553711e-05
-0.000206553948316213,-0.000338816662956277,-4.9831723675189e-05,2.76790519284078e-05
-0.000195753586039161,-0.000354087373857938,-3.7600770650601e-05,1.29502910521205e-05
-0.000182592879688315,-0.000370883963756797,-2.48063051949891e-05,-4.07207992606201e-06
-0.000168967257080511,-0.000382089637642481,-1.24229571961611e-05,-1.68042952118037e-05
-0.000153446206655872,-0.000393593334769805,3.12026371602927e-06,-2.68664322381706e-05
-0.00013276339368602,-0.000408566022429825,2.48332855914936e-05,-3.93737118009109e-05
-0.000108015543700191,-0.000420653845110765,4.82352884676945e-05,-5.39725501441131e-05
-9.22679956119058e-05,-0.000432813193369698,6.3174328191761e-05,-6.62090128766514e-05
-9.18269212142778e-05,-0.000445055988136291,6.37909803651508e-05,-7.51978215440455e-05
-0.000100672251026169,-0.000453972843526175,5.42385697590534e-05,-8.37490742668767e-05
-0.000111973292349177,-0.000460374382756614,4.32838752780515e-05,-9.13077439091094e-05
-0.000116813189793419,-0.000462162522206457,3.57842714266984e-05,-9.27006505358814e-05
-0.000121581561659668,-0.000458812740970417,3.14326167454878e-05,-8.53920458284731e-05
-0.000124204166186104,-0.000445735481127231,2.92870792123987e-05,-7.28353462775558e-05
-0.000121152408191705,-0.000429832960953293,2.97304502396582e-05,-5.7784419495059e-05
-0.000118005282759981,-0.000411725068791215,3.22456291592036e-05,-3.71268063202581e-05
-0.000115990645646491,-0.000385665916542167,3.4411958510378e-05,-8.67088309310514e-06
-0.000114870078257923,-0.000356471559791062,3.41261358844406e-05,1.97888411232899e-05
-0.000116789347934088,-0.00034223796977031,3.12987933565671e-05,3.54042718208654e-05
-0.000119411952460525,-0.000343930741782829,2.70051272664455e-05,3.5325257659835e-05
-0.000124096877819114,-0.00035037996473193,2.23953574726199e-05,3.09397916073226e-05
-0.000126779086993878,-0.000347125550933215,1.86097275671058e-05,3.41387486350469e-05
-0.000127506263703481,-0.000339818021048189,1.6149309895462e-05,4.37985522386299e-05
-0.000128698356670043,-0.000334405918979998,1.39181656782763e-05,4.97508180026249e-05
-0.000132131584413742,-0.000339508076876883,1.03485872723434e-05,4.6394104352229e-05
-0.000135171421478475,-0.000351452848401835,5.7902238833835e-06,3.6868563127364e-05
-0.000137257584169959,-0.000362312815327216,2.05989387787057e-06,2.56645642644787e-05
-0.000139737137540408,-0.000376200698387664,-8.85404930384598e-07,1.36768596775897e-05
-0.000143539914103741,-0.000390172027955772,-5.61341643580657e-06,1.72267774723519e-06
-0.000149786481248527,-0.000399780297266263,-1.31114920662827e-05,-6.44313485160818e-06
-0.000155591973995684,-0.000401818776239084,-2.00493859188624e-05,-7.82248863238282e-06
-0.000156843671610574,-0.000398468995003044,-2.26871985100907e-05,-4.11675120610167e-06
-0.00015696288090723,-0.000397491478770463,-2.25322241093835e-05,6.49702043399875e-07
-0.000157809266913489,-0.000393605255699471,-2.51055491252904e-05,4.65334919176844e-06
-0.000163459787574994,-0.000389707111698813,-3.27530272563995e-05,8.31423712773614e-06
-0.00017307997781515,-0.000388956093129879,-4.13521875828886e-05,1.14415950821502e-05
-0.000175738345130583,-0.000389289879160516,-4.53576177908462e-05,1.28416907436582e-05
-0.000172042856934241,-0.000389981293081122,-4.38622584865051e-05,1.24208845029725e-05
-0.000168454657104889,-0.000389957451221791,-3.96736160250339e-05,1.21106447497445e-05
-0.000162112722522779,-0.000389719032628479,-3.41148359341368e-05,1.47292829760953e-05
-0.000152611741579279,-0.000383365177116703,-2.57672323731358e-05,2.23594290973997e-05
-0.000140178211938036,-0.000369417689407926,-1.41534209318074e-05,3.48207154799366e-05
-0.000127530105562812,-0.000357413313234646,-1.7398435077148e-06,4.88005034382748e-05
-0.00011692047816041,-0.000346922895128899,8.71894785364267e-06,5.93884021844966e-05
-0.00010771752045855,-0.000343334695299548,1.67234302368694e-05,6.35775247088608e-05
-0.000101208692861121,-0.000344860574296747,2.27700414121226e-05,6.18309930420685e-05
-9.76443348911008e-05,-0.000350916406566882,2.65520672219947e-05,5.58377445190026e-05
-9.55224094106203e-05,-0.000360786936330017,2.80426887909742e-05,4.60985037260025e-05
-9.47594699120205e-05,-0.000374341033359828,2.86054125800103e-05,3.29900301809901e-05
-9.37104281014459e-05,-0.000386846088579064,2.89376128697728e-05,1.90794310917986e-05
-9.57369861446015e-05,-0.000398004078746085,2.73751752186703e-05,8.16751142140598e-06
-0.000100231176628541,-0.000404357934257861,2.27078992656052e-05,1.45255368161112e-06
-0.00010540486010342,-0.000409150147983441,1.73526747349583e-05,-4.31262299532899e-06
-0.000107848650684872,-0.000418329263825969,1.45010807093535e-05,-1.40646983244232e-05
-0.000109779841290703,-0.000433194663118998,1.28418602213939e-05,-2.98903264021859e-05
-0.00011558533403786,-0.00045129063435141,8.05177397064745e-06,-4.92884631121978e-05
-0.000122714049977902,-0.000469493893950814,-6.07240919333709e-08,-6.75744104002971e-05
-0.000128448017147065,-0.000481164484093456,-5.91698682598017e-06,-8.1514143593943e-05
-0.000128936775263356,-0.000488746195360791,-5.12281145427095e-06,-9.0582297884321e-05
-0.000123691566210482,-0.000493752985820352,5.24900826662472e-07,-9.56730551272756e-05
-0.000116896636301079,-0.000493550330016037,6.80229830950015e-06,-9.79948440598103e-05
-0.000111341483076899,-0.000492811232376768,1.1905699729218e-05,-9.91533761154348e-05
-0.00011136532493623,-0.000493097334688743,1.45087800012006e-05,-0.000100477279971397
-0.000114405162000964,-0.000492143660315493,1.08790144817901e-05,-0.000101339122212366
-0.000125670440534976,-0.000488686590712463,-7.50868902208184e-07,-9.96423098184356e-05
-0.000139844425907399,-0.000481188325952788,-1.43333749092648e-05,-9.50683822608589e-05
-0.000147032746495768,-0.000474989442526665,-1.97994072957719e-05,-9.01000251511597e-05
-0.000140988835155298,-0.000470352200886738,-1.33431999847901e-05,-8.61587536944567e-05
-0.000126516826541235,-0.000460445908334607,-2.58154307842682e-07,-8.05803224381738e-05
-0.000114798552679929,-0.000448000457763699,1.28595985367268e-05,-6.986460746765e-05
-0.000105381018244089,-0.000431978728293105,2.46852148216831e-05,-5.42628077472547e-05
-9.24587304865557e-05,-0.000411117101378268,3.64378153955278e-05,-3.60085429009978e-05
-8.188486587315e-05,-0.000385963939783808,4.63462517208573e-05,-1.46901520200462e-05
-8.0657010117591e-05,-0.000359439871277801,5.01886403216245e-05,1.07049642695097e-05
-8.55684331398268e-05,-0.000334966202674282,4.60615899981201e-05,3.50618115248169e-05
-9.45806559670362e-05,-0.000317120570964847,3.59031517276643e-05,4.8250377355389e-05
-0.000108742720409794,-0.000318205375564419,2.24200512154634e-05,4.64243604647061e-05
-0.00012623072422926,-0.000321936626549758,6.62297346418388e-06,3.90995934258783e-05
-0.000143909462923376,-0.000321459789363133,-1.07278075831532e-05,4.10021366985979e-05
-0.000158953676161389,-0.00030200483214884,-2.65551744076936e-05,5.73455267365095e-05
-0.000170135508187742,-0.000274789349722227,-3.64698414023928e-05,7.92554972255193e-05
-0.000173711787087428,-0.000263249889805906,-3.93147528898258e-05,9.32759088552276e-05
-0.000173485289423781,-0.000262618080533628,-3.93241190945891e-05,9.39834173198399e-05
-0.000176262866035871,-0.00026168824801971,-4.14958960264646e-05,8.77754412620753e-05
-0.000180387507700175,-0.000265324131567724,-4.51364026560024e-05,8.54707068715838e-05
-0.000179970275161879,-0.000260281578319167,-4.49254143777981e-05,9.12468110137841e-05
-0.000174260149852046,-0.000250208392751717,-3.89997563702965e-05,9.88163055958861e-05
-0.000169122229166164,-0.000248026862622908,-3.22455014661254e-05,9.87860919678914e-05
-0.000164616117752559,-0.000257241741254433,-2.91691814582454e-05,8.86919389853095e-05
-0.000162148485311776,-0.000274229066027943,-2.6996363064967e-05,7.41450642221535e-05
-0.000156748304173249,-0.000284183042298737,-2.00023643145778e-05,6.13749642405083e-05
-0.000146281727926834,-0.000292027014018715,-8.57912197260059e-06,5.18758928693378e-05
-0.000133347519239635,-0.000300812739182278,8.55636720510323e-07,4.41536333558924e-05
-0.000131368644915142,-0.000309658068994169,4.33180168770917e-06,3.67432348664714e-05
-0.000134027012230576,-0.000315904636138954,4.08190182216524e-06,2.81682767092545e-05
-0.000131845482101767,-0.000327146072813634,3.65614454927301e-06,1.72113586132048e-05
-0.000130343444963899,-0.000340390225672139,3.70714539361302e-06,4.96055120001967e-06
-0.000132668026248695,-0.000351953527447792,3.62746554978467e-06,-5.98976300461939e-06
-0.000132668026248695,-0.000361979029296579,3.52182788580237e-06,-1.53306057119233e-05
-0.000131380565844808,-0.000370049498680204,3.13917926771497e-06,-2.4535632760434e-05
-0.000131559379789792,-0.000378835223843767,1.94273565263719e-06,-3.14088820002666e-05
-0.000133180626224317,-0.000379943870302669,1.21762710198241e-06,-3.01971796238058e-05
-0.000132465370444379,-0.000369274638251939,2.84521158729121e-06,-2.07114033479061e-05
-0.000127303607899166,-0.000363039992036819,5.10110878665844e-06,-1.28862875387281e-05
-0.0001280546264681,-0.000368177912722702,3.55184646416846e-06,-1.66418856628974e-05
-0.00013545752379045,-0.000382721446914759,-2.19055928930507e-06,-2.93657917146071e-05
-0.000139200695705455,-0.000393474125473149,-6.40980157142598e-06,-3.89522755771225e-05
-0.000134432323839207,-0.000392842316200871,-4.37595916179107e-06,-3.82033809940336e-05
-0.000127720840437462,-0.000387382530414017,1.75381836234924e-06,-3.06401556478644e-05
-0.00012489558010671,-0.000382208846939137,6.71082660148964e-06,-2.21090454437178e-05
-0.000121045119824715,-0.000372445605542994,8.73643692505785e-06,-1.29853583408822e-05
-0.000117385394417369,-0.000362026713015241,9.39128033894295e-06,-1.6853536015863e-06
-0.000119280822234203,-0.000356388113283402,9.38588016979096e-06,8.42513473430346e-06
-0.000119876868717484,-0.000354039690139275,8.21435528844111e-06,1.05281564568717e-05
-0.000120055682662468,-0.000363314173419128,6.46574095215952e-06,2.57967128580063e-06
-0.000119900710576815,-0.00037716629369058,5.3560668675039e-06,-8.81203247613449e-06
-0.000120508677989762,-0.000383782409654999,4.85983189781779e-06,-1.4340144675604e-05
-0.000121319301207024,-0.000383269809679378,4.63054555928191e-06,-1.18178785707165e-05
-0.000117623813010681,-0.000381398223721875,5.50943298684928e-06,-8.98059605638563e-06
-0.000115168101499564,-0.000388538860591582,7.82143936435831e-06,-1.4832482468528e-05
-0.000114226348055979,-0.000404560590062177,9.61820429109747e-06,-2.82009796032821e-05
-0.000112581259762124,-0.000413632417537714,9.16066443480236e-06,-3.76671861870515e-05
-0.000113999850392333,-0.000412905240828111,7.83462022156357e-06,-3.45657818259285e-05
-0.000113034255089417,-0.000402677083175008,7.84392997549918e-06,-2.31823610850565e-05
-0.000112855441144433,-0.000395071530048342,8.01078359500926e-06,-1.46563524532877e-05
-0.000115704543334516,-0.000393736385925793,4.79834624797494e-06,-1.29651076580687e-05
-0.000122118003494621,-0.000394403957987068,-2.76553698929939e-06,-1.20365342316287e-05
-0.000130724914713199,-0.000390839600017047,-1.15024201294475e-05,-6.49506749311511e-06
-0.000137162216732634,-0.000382530712040109,-1.72243261170609e-05,5.23535391326462e-07
-0.000135755547032091,-0.000380182288895982,-1.77398647327164e-05,2.83634648284449e-06
-0.000132071979765414,-0.000386762642071405,-1.34037530024772e-05,2.53210786140658e-07
-0.000125241287067013,-0.00038810970712362,-6.58658433664146e-06,-1.85284208157178e-06
-0.000118315226931287,-0.000382852577141081,-1.73501288655928e-07,-3.86376962828913e-08
-0.000113236910893733,-0.000382494949251112,4.79872855665998e-06,3.93245063456522e-06
-0.000109112269229428,-0.000382328056235794,9.16037320471434e-06,6.66008032099643e-06
-0.000105988985657035,-0.00037746431693222,1.22232587904345e-05,6.52447139333358e-06
-0.000107884413473869,-0.000381481670229534,1.0453944049172e-05,3.11332209719255e-06
-0.000116586692129772,-0.000390899204665375,1.91481810271554e-06,-3.79102671903878e-06
-0.000128293045061412,-0.000399839901914591,-9.53923045503817e-06,-1.30011895496197e-05
-0.0001360297284144,-0.000404965901670808,-1.7302220893448e-05,-2.12492145872897e-05
-0.000138056286457556,-0.00040836336662551,-1.83130321691485e-05,-2.52837331317693e-05
-0.000134217747105226,-0.000409567380521737,-1.39755909854348e-05,-2.39659501576374e-05
-0.000125479705660326,-0.000403118157572636,-6.43578726445615e-06,-1.76875809249865e-05
-0.000118875510625572,-0.00038764479086666,2.53930065029101e-06,-7.68108323323198e-06
-0.000112795836496105,-0.000379347823819388,9.75376781586588e-06,1.9930201232315e-06
-0.000109136111088759,-0.000380110763317988,1.16544831577429e-05,3.78112376140372e-06
-0.000114429003860295,-0.000387871288530307,8.02039819597156e-06,-7.31576709403695e-06
-0.00012288094299322,-0.000403451943603274,2.07192978095443e-06,-2.59246777858154e-05
-0.000127840049734119,-0.000416922594125425,-3.3145638301298e-06,-3.87938088386147e-05
-0.000130784519361527,-0.000419104124254234,-7.03319187206457e-06,-3.82790434061565e-05
-0.000134575374995194,-0.00040664675275366,-7.57199602961067e-06,-3.06437046860621e-05
-0.000130963333306511,-0.000401103520459146,-2.84962193536561e-06,-2.74607868959412e-05
-0.000121033198895049,-0.000407552743408247,6.45787626077881e-06,-3.13586413935381e-05
-0.000113070017878414,-0.000410962129292615,1.58417243503176e-05,-3.52492586172417e-05
-0.000109565264556722,-0.000405907655114392,2.09216901472703e-05,-3.41317613605497e-05
-0.000110983855186931,-0.000402486348300359,2.14377114958275e-05,-3.10413188740087e-05
-0.000111627585388874,-0.000402176404129052,2.04845929364467e-05,-3.00040137781063e-05
-0.00011221171094249,-0.000400435948397872,2.06462168359765e-05,-2.91112912396481e-05
-0.000114405162000964,-0.000393557571980808,2.13648252524976e-05,-2.40057616244256e-05
-0.000117146975824057,-0.000381934665556828,1.97676449565313e-05,-1.42070589030695e-05
-0.000121486194222343,-0.000371360800943422,1.44787966360433e-05,-2.43062344186374e-06
-0.000129973896144265,-0.000359892866605095,8.85277240843728e-06,9.44157498596974e-06
-0.000131464012352467,-0.000345194360327384,8.66647270525129e-06,2.05117644462838e-05
-0.000125753887042635,-0.000336205979359506,1.51184438223326e-05,2.9687873227819e-05
-0.000119864947787818,-0.000329709072691743,2.20071348980763e-05,3.76669671588614e-05
-0.000120615966356752,-0.000318264980212747,2.22737300559691e-05,4.78482592603452e-05
-0.000128841407826031,-0.000302755850717774,1.57791424832031e-05,6.20906750321766e-05
-0.000138151653894881,-0.000286412256146208,7.78308678176108e-06,7.7570172376654e-05
-0.000144290932672675,-0.000276136414774443,1.44625287817696e-06,9.0603123355108e-05
-0.000151622304417032,-0.00026427508975715,-4.14757299985098e-06,0.000100824190527482
-0.000158345708748442,-0.000254344955345688,-9.36440435279808e-06,0.000108125290937604
-0.000161576280687826,-0.000257837787737714,-1.21104957801362e-05,0.000108757237538796
-0.000160920629556217,-0.000264608875787787,-1.12408739287981e-05,9.98446637498752e-05
-0.000159347066840355,-0.000278580205355895,-7.97174283672256e-06,8.59100651917353e-05
-0.000155234346105715,-0.000290370004795194,-2.85914814728068e-06,7.48649294661364e-05
-0.00014678240697279,-0.00029721261842326,5.01655635873393e-06,6.7652322039351e-05
-0.000139081486408799,-0.000308167952785966,1.43609441984339e-05,5.74658107795002e-05
-0.000134038933160241,-0.000326108951932725,2.03166866412479e-05,4.01198743663425e-05
-0.000134515770346866,-0.000344645997562766,1.87867662870183e-05,2.00398225123389e-05
-0.000144457825687994,-0.000362920782740163,1.02594921154564e-05,4.14939564089221e-06
-0.000157523164601515,-0.000372576735769316,-1.52780763840278e-06,-5.74405607171653e-06
-0.000166940699037355,-0.000378727935476776,-1.26308810396702e-05,-1.19628445644855e-05
-0.00017520190329563,-0.000382506870180778,-2.02945931099094e-05,-1.60035542784104e-05
-0.000180315982122182,-0.000386500381618761,-2.41627391019982e-05,-1.78791689729544e-05
-0.000182914744789287,-0.000387108349031708,-2.68315195305294e-05,-1.85225292857888e-05
-0.000184261809841502,-0.00038658382812642,-3.05549736478581e-05,-1.99287860357972e-05
-0.000188553344521126,-0.000392520451099899,-3.31935841623552e-05,-2.3214079283421e-05
-0.000187194358539245,-0.000398111367113076,-3.09567504101361e-05,-2.77226061279187e-05
-0.000179135810085285,-0.000399398827516963,-2.56587030997332e-05,-3.15852409172654e-05
-0.000178003321767051,-0.000402188325058718,-2.46853594621638e-05,-3.30149912880261e-05
-0.000186014186502349,-0.000402915501768321,-3.16488711409683e-05,-3.22858259310585e-05
-0.000194036972167311,-0.000402653241315677,-4.09519992808732e-05,-3.23779759457149e-05
-0.000195932399984145,-0.000404763245866492,-4.4360532281589e-05,-3.58288076535057e-05
-0.000190842163016925,-0.000409984613060034,-4.00499260752879e-05,-4.07430817462595e-05
-0.00018440486099749,-0.00041394236170902,-3.2871812587157e-05,-4.19093685136427e-05
-0.000178146372923039,-0.000405633473732082,-2.86375209713194e-05,-3.62401166343259e-05
-0.000177538405510092,-0.000393295311528165,-3.02359034413726e-05,-2.52552052574165e-05
-0.000184261809841502,-0.000383186363171718,-3.59307555415046e-05,-1.24037657125161e-05
-0.00018565655861238,-0.000371301196295094,-3.88965153986455e-05,-1.09863662184544e-06
-0.000175690661411921,-0.000364148638495722,-3.20695572562223e-05,3.63948611281637e-06
-0.00016145707139117,-0.000372588656698981,-1.67143491438568e-05,-4.74172882529004e-06
-0.00014533997448325,-0.000398564362440369,-2.82539693195613e-06,-2.90296939896858e-05
-0.000138330467839865,-0.000430953528341861,2.35872298326926e-06,-6.3535331427072e-05
-0.000136780746983334,-0.0004624247826591,2.56856712128678e-06,-9.68531144025987e-05
-0.000133275993661642,-0.000487256079152589,5.35996520736803e-06,-0.000119832550180835
-0.000125908859128288,-0.00049563649270752,1.12396124635574e-05,-0.000130593164065471
-0.000117826468814997,-0.000497114687986057,1.60521447278245e-05,-0.000132550807398389
-0.000112950808581758,-0.000493085413759077,2.08440498422862e-05,-0.000128784336464551
-0.000101888185852062,-0.000481200246882453,3.1223423849822e-05,-0.00011903680365046
-8.25166751454279e-05,-0.000464761284873562,4.71253635256794e-05,-0.000102500357496351
-6.7198280525105e-05,-0.000443398978912769,6.05284430042786e-05,-8.24739808692843e-05
-6.33239783837782e-05,-0.000425362612328685,6.49142444616644e-05,-6.52543449336791e-05
-6.47068062249903e-05,-0.00041086676185529,6.13408164138261e-05,-5.26400367426742e-05
-6.86168711553139e-05,-0.000395655655601958,5.37752960479875e-05,-3.82461348865844e-05
-7.80940102394825e-05,-0.000372254870668344,4.43430174522864e-05,-1.48979405086592e-05
-8.57234052254799e-05,-0.000339329262931899,3.5762120996328e-05,1.58351143728819e-05
-8.57114842958143e-05,-0.000307190436553385,3.28988656972571e-05,4.58532616543061e-05
-7.9715256674007e-05,-0.000282275693552237,3.73745602972427e-05,7.14235542192681e-05
-7.2324280281322e-05,-0.000255942359920881,4.34575820886309e-05,9.62121763777599e-05
-7.18355221650316e-05,-0.000227761282191353,4.2902670794815e-05,0.000122443662165561
-8.0847744992241e-05,-0.000202977669416527,3.23130123790019e-05,0.000145150592014233
-9.65476093618637e-05,-0.000191438209500206,1.40264721710817e-05,0.000158747187284031
-0.000117135054894391,-0.000181567679737072,-7.23660689507191e-06,0.000164525922280748
-0.000135314472634463,-0.000178349028727354,-2.59393475900514e-05,0.000166722162638955
-0.000144064435009029,-0.000182473670391659,-3.69528157946957e-05,0.000164311365053655
-0.000144374379180335,-0.000189423572386716,-3.91781158065854e-05,0.000152327047141793
-0.000142014035106542,-0.000213527692170602,-3.69421601456545e-05,0.000130131330657656
-0.000139069565479133,-0.000239110007233024,-3.51456282284986e-05,0.000103326088869883
-0.000136518486530691,-0.000262224689854663,-3.41914709482902e-05,7.75708834118567e-05
-0.000132751472756354,-0.000284945981797336,-3.18571176442932e-05,5.48117820267601e-05
-0.000128233440413084,-0.00030488969712792,-2.80740225982429e-05,3.56412568752542e-05
-0.000124955184755038,-0.000317204017472507,-2.4448820845135e-05,2.05583765159389e-05
-0.000118255622282959,-0.000329804440129068,-2.04569833063919e-05,7.32233008773598e-06
-0.000111281878428571,-0.000346481820731272,-1.41888787324487e-05,-8.87661051922066e-06
-0.000104594236886158,-0.000366818926740821,-6.70185519179074e-06,-2.99039767605178e-05
-9.78112279064195e-05,-0.000387454055992011,-1.70965904761292e-06,-5.17866492374897e-05
-9.53912791842985e-05,-0.00040509703189713,-2.03578129377721e-07,-6.96351528539294e-05
-9.41634234287395e-05,-0.000418460394052291,1.00869843401185e-06,-8.33291169503962e-05
-9.10997445046749e-05,-0.000431096579497849,3.88548381526697e-06,-9.56447725151152e-05
-8.81195120882697e-05,-0.000441074397627973,5.63131697888258e-06,-0.000106262641334922
-9.06229073180501e-05,-0.000444734123035319,3.3032944246248e-06,-0.000110912650963249
-9.40084513430864e-05,-0.000440907504612655,-4.32653594808241e-07,-0.000106542368331636
-9.32097490554898e-05,-0.000430333639999249,1.24638731103276e-07,-9.48454665756333e-05
-8.70823912073607e-05,-0.00041394236170902,5.83214702599053e-06,-7.99176212436712e-05
-8.25047542157623e-05,-0.000397765660152773,1.07971327686144e-05,-6.42093136262318e-05
-8.36491634636619e-05,-0.00038350822827269,9.35539579077948e-06,-4.80514298582298e-05
-9.0563302669722e-05,-0.000367319605786777,2.56963457988595e-06,-3.22234512855174e-05
-9.63330326278825e-05,-0.0003541350575766,-3.78027083102075e-06,-1.92335445918831e-05
-0.000100016599894559,-0.000346004983544647,-5.93334963535044e-06,-1.1090623332454e-05
-9.85384046160224e-05,-0.000341737290724354,-4.71006395535662e-06,-5.9057300194593e-06
-9.45210513187081e-05,-0.000334537049206319,-2.23481039438544e-06,2.13986448834349e-06
-9.39846094837552e-05,-0.000319254417374993,1.18491306415642e-06,1.76137794046584e-05
-8.92162376175068e-05,-0.000298094767218516,6.12720000235151e-06,3.7730030672911e-05
-8.15033961238501e-05,-0.000284695642274358,1.17660077712773e-05,5.27561108959552e-05
-8.00848054936412e-05,-0.000285339372476302,1.58592351911606e-05,5.47034209329847e-05
-8.01444101419693e-05,-0.000291728990777075,1.64668370677366e-05,4.6010517064524e-05
-8.31365634880402e-05,-0.000299453753200397,1.3160272771151e-05,3.80285554819073e-05
-8.88824515868694e-05,-0.000301861780992852,7.44183403025621e-06,3.99372792755385e-05
-9.58919582302545e-05,-0.000291180628012456,2.55573568067455e-06,5.01001366220058e-05
-9.70244465484885e-05,-0.000280153768071757,1.57803186689984e-06,5.92671498368471e-05
-9.47713908416862e-05,-0.000280809419203366,4.30824961257961e-06,6.11655394199683e-05
-9.25898607128775e-05,-0.000285851972451924,6.77497926865627e-06,5.80117979766483e-05
-9.59754047379139e-05,-0.000287377851449123,5.24488245046039e-06,5.56723275861738e-05
-0.000101614004469753,-0.000288271921174045,3.05937781799312e-07,5.56706966062543e-05
-0.00010597706472737,-0.000290393846654525,-4.31524599000196e-06,5.36228494607828e-05
-0.000109601027345719,-0.000302267092601484,-6.38944467514339e-06,4.45997109160976e-05
-0.000111377245865896,-0.000318813342977365,-6.78126713328071e-06,2.79910925506279e-05
-0.000111401087725227,-0.000339281579213236,-6.53282734102836e-06,6.95133368274798e-06
-0.000110077864532343,-0.000362718126935847,-4.64777542400014e-06,-1.48012076353514e-05
-0.000106859213522626,-0.000384211563122962,5.29767860707503e-08,-3.42552126856206e-05
-0.000101673609118081,-0.000398981594978666,6.2735994616719e-06,-4.90263818862964e-05
-9.75728093131071e-05,-0.000408840203812134,1.10025132973426e-05,-5.8996514701394e-05
-9.63211116982169e-05,-0.000419282938199218,1.26252320282375e-05,-6.80407262706685e-05
-9.81211720777256e-05,-0.000434863593272185,1.2241550606507e-05,-8.10995282869179e-05
-0.000100779539393159,-0.000451254871562414,1.17502155691288e-05,-9.81032862469175e-05
-9.9492078989272e-05,-0.000466847447565046,1.1182844602808e-05,-0.000113206114684777
-0.000104629999675155,-0.000477457074967448,8.41376373139777e-06,-0.000122079281134231
-0.000113260752753064,-0.000484526186259162,1.78310272926766e-06,-0.000127577984179708
-0.00012124777562903,-0.000492262869612149,-7.18116777948699e-06,-0.000134739863287608
-0.000129318245012656,-0.000498831301857907,-1.44473769286228e-05,-0.000141429944384576
-0.000133991249441579,-0.000497949153062651,-1.71957781226784e-05,-0.000138174347791181
-0.000133466728536292,-0.000478339223762704,-1.58740001538362e-05,-0.000117842090133977
-0.000129067905489678,-0.000444960620698966,-1.19587976556338e-05,-8.23904154464631e-05
-0.000123310096461183,-0.00040136578091179,-5.34785312796897e-06,-3.98196286145417e-05
-0.000115919120068498,-0.000361228010727645,4.00555985502723e-06,1.96467127793426e-06
-0.000106799608874298,-0.000329566021535755,1.2977253427925e-05,3.79509415080073e-05
-0.000102889543943974,-0.000297081488196938,1.69359803372257e-05,6.75578177516949e-05
-0.000105237967088101,-0.000271976010321141,1.50257805752455e-05,9.54021646645814e-05
-0.000111269957498906,-0.000243651881435626,1.1074432008228e-05,0.000125984520627429
-0.00011376143179902,-0.000214421761895523,8.06051911375137e-06,0.000154700363005768
-0.000116956240949407,-0.000204491627484061,4.17865904196733e-06,0.000168754083661747
-0.000125968463776616,-0.000209355366787634,-3.61195134908958e-06,0.000161361047086165
-0.00013842583527719,-0.000233125700540882,-1.40710901674494e-05,0.00014122342081715
-0.000144541272195653,-0.000254356876275353,-2.23847033246995e-05,0.000122870273660277
-0.000147819527853699,-0.000264370457194475,-2.55806155805128e-05,0.000111128896635774
-0.000149118909187252,-0.000276637093820399,-2.47937282229757e-05,0.000101268391897451
-0.000146806248832121,-0.00028972627459325,-2.2417190682504e-05,9.09922792056688e-05
-0.000141429909552926,-0.000297927874203198,-1.94712075715515e-05,8.31453835349066e-05
-0.000139725216610743,-0.000305318850595883,-1.63036306680146e-05,7.65770705311154e-05
-0.000138676174800168,-0.00032092334752818,-1.37203425455226e-05,6.37105020464901e-05
-0.000134611137784191,-0.000344264527813466,-1.20261115395564e-05,4.08980797522533e-05
-0.000132787235545351,-0.000372302554387006,-1.00685334220072e-05,1.46977026836842e-05
-0.00012998581707393,-0.000394558930072721,-6.60530948384622e-06,-6.24589306068445e-06
-0.000125372417293335,-0.000410378003739,-2.14608400052202e-06,-2.05909207924359e-05
-0.000120496757060096,-0.000422561193857264,1.77924435107123e-06,-3.16661598010499e-05
-0.000116586692129772,-0.000432515170128058,5.05775403358138e-06,-4.00959178654404e-05
-0.000112843520214767,-0.000438129928000565,9.25318580415062e-06,-4.40300890636395e-05
-0.000107657915810222,-0.000439143207022143,1.45865698324766e-05,-4.39503269870031e-05
-0.000102198130023368,-0.000438368346593877,1.77956342735296e-05,-4.27096552477754e-05
-0.000105309492666095,-0.000440144565114055,1.50989921451234e-05,-4.22602888301593e-05
-0.000113487250416711,-0.000442874458007482,7.63008253391377e-06,-4.35303967406764e-05
-0.000117266185120713,-0.000446844127586134,1.6265551293237e-06,-4.76702635886856e-05
-0.000117158896753722,-0.000455033806266415,1.35760069652148e-06,-5.40700711026603e-05
-0.000115895278209166,-0.00046049359205327,3.53067620418064e-06,-5.8528634802473e-05
-0.000115764147982845,-0.000459527996750355,1.57684543760152e-06,-5.65334981790765e-05
-0.000122594840681245,-0.00045175555060837,-5.49928946162541e-06,-4.77402057425863e-05
-0.000129699714761955,-0.00043936970468579,-1.24994800847927e-05,-3.54416210964419e-05
-0.00013227463556973,-0.000427889849417797,-1.64910758442092e-05,-2.3342881411225e-05
-0.000136363514445038,-0.000422668482224255,-2.09252070837265e-05,-1.50157748348097e-05
-0.000143730648978391,-0.000419998193979156,-2.86424653702368e-05,-1.43163190795402e-05
-0.000149428853358558,-0.000428283240096762,-3.51724612784718e-05,-2.26885496083893e-05
-0.000147390374385737,-0.000444018867255382,-3.38759788750494e-05,-3.61347109076828e-05
-0.000138700016659499,-0.000455856350413343,-2.54110319863507e-05,-4.70194655246305e-05
-0.000129318245012656,-0.000455844429483678,-1.67645666952376e-05,-4.93409518729772e-05
-0.000123751170858811,-0.000448811080980961,-1.17667033928905e-05,-4.24469634029698e-05
-0.000119018561781559,-0.000440943267401652,-7.89150752513064e-06,-3.13544061835227e-05
-0.000114023692251664,-0.000431621100403136,-2.46986705278111e-06,-2.35809284287465e-05
-0.000106525427491988,-0.000428175951729772,3.66898921554563e-06,-2.27632548155655e-05
-9.91702138883003e-05,-0.000431966807363439,1.01244137130654e-05,-2.44451779036192e-05
-9.19938142295965e-05,-0.000429117705173356,1.87340419512256e-05,-2.12910798242611e-05
-8.02278566496287e-05,-0.000418341184755634,2.8460565465195e-05,-1.34083369976222e-05
-7.44462057618025e-05,-0.000415313268620567,3.34355147979298e-05,-9.18545845507397e-06
-7.91072892610603e-05,-0.000417745138272353,3.03376864924718e-05,-1.37247498511307e-05
-8.41736843689492e-05,-0.000425219561172698,2.41218439795092e-05,-2.11639321121087e-05
-8.4400182032596e-05,-0.000426006342530629,2.20467485875854e-05,-2.21944200665569e-05
-8.34226658000151e-05,-0.000417041803422082,2.50125922303593e-05,-1.51158584303542e-05
-7.83562706921262e-05,-0.000404286408679867,2.92296458783349e-05,-4.89175028332766e-06
-7.34925313885529e-05,-0.000395166897485667,3.31040242876848e-05,5.24234456609657e-06
-7.0405010605157e-05,-0.000384557270083265,3.65124437413818e-05,1.57713636181799e-05
-7.11202663850943e-05,-0.000368607066190664,3.58136736050022e-05,2.67415840608108e-05
-8.02278566496287e-05,-0.000357043764415012,2.72365874577264e-05,3.68852169596976e-05
-9.07421166147063e-05,-0.000351774713502807,1.50055493306992e-05,4.55720434310073e-05
-9.84787999676943e-05,-0.000340890904718095,8.41756388983048e-06,5.13151261569137e-05
-9.77993069767539e-05,-0.000338196774613665,9.24417560043571e-06,5.03370009015019e-05
-9.75608883834415e-05,-0.000348746797367739,9.24150757101081e-06,4.14540290122668e-05
-0.000103104120677955,-0.000358390829467227,2.9774124865454e-06,3.03399433074064e-05
-0.00011136532493623,-0.000361549875828616,-4.08972752486464e-06,2.34172565151781e-05
-0.000112152106294161,-0.00036276581065451,-5.09457755393511e-06,1.92146830603095e-05
-0.000109994418024684,-0.000371599219536735,-2.96538662208106e-06,1.19246268784048e-05
-0.000112140185364496,-0.000377512000650883,-5.31166534630037e-06,2.31550475945164e-06
-0.000119566924546178,-0.000378680251758114,-1.21654108916025e-05,-1.87627593603279e-06
-0.000124418742920085,-0.000372958205518616,-1.62597829237927e-05,3.51417781105183e-06
-0.000120580203567755,-0.000357997438788261,-1.37179728988133e-05,1.49366950934081e-05
-0.000115537650319198,-0.000344288369672797,-7.57790123773092e-06,2.80571038467639e-05
-0.000109660631994047,-0.00032811166811655,-1.30387503694874e-06,4.1633434501604e-05
-0.000103425985778927,-0.000313270110682852,4.61793567082263e-06,5.29114140405107e-05
-9.89675580839847e-05,-0.000309407729471191,9.10356244627834e-06,5.67309421525394e-05
-9.9241739466294e-05,-0.000310707110804743,9.69334463505217e-06,5.27757390885044e-05
-0.000101053720775468,-0.000312864799074221,7.21950569237571e-06,4.75094688140092e-05
-0.000102841860225312,-0.000314700622242726,6.44911867787761e-06,4.50242027272212e-05
-9.8896032505991e-05,-0.000314450282719748,1.00068639247317e-05,4.1737147213891e-05
-9.31382234774961e-05,-0.000321102161473165,1.53374839454625e-05,3.45115992653361e-05
-9.11116654343406e-05,-0.000325012226403488,1.89839119242937e-05,2.79804079099576e-05
-8.96573120151348e-05,-0.000323140640445986,1.9820428924454e-05,2.7288783700249e-05
-9.15646607616341e-05,-0.000321829338182767,1.6631602275218e-05,2.76757273577618e-05
-0.000103187567185615,-0.000328540821584512,7.1424175183326e-06,1.85562753998212e-05
-0.000118064887408309,-0.000349128267117039,-7.78813678344299e-06,-3.75653963559185e-06
-0.000130951412376846,-0.000377678893666201,-2.26747019192915e-05,-3.36104904852079e-05
-0.000142467030433835,-0.000406372571371351,-3.30517115204688e-05,-6.49377401734755e-05
-0.000150978574215089,-0.000436258342043063,-3.98617090287247e-05,-9.59343840883656e-05
-0.000154495248466447,-0.000463962582585965,-4.60605156603695e-05,-0.00012443679162697
-0.000161170969079195,-0.000482451944497344,-5.22126178007574e-05,-0.000144944488800603
-0.000168037424566592,-0.000488007097721523,-5.81259758237174e-05,-0.000153043933464419
-0.000175070773069309,-0.000484907656008461,-6.54098266635889e-05,-0.000149438758050947
-0.000183308135468253,-0.000472056893828922,-7.47810781480887e-05,-0.000137651943707062
-0.000191223632766225,-0.000452184704076332,-8.30158724897062e-05,-0.000120112480336052
-0.000194895279103236,-0.000428652788916396,-8.52209715830062e-05,-9.7597761786716e-05
-0.000186407577181314,-0.000401449227419449,-7.74937619369702e-05,-7.01643891243457e-05
-0.000162506113201744,-0.000369191191744279,-5.5486788936272e-05,-3.77368640914843e-05
-0.000124013431311454,-0.000330340881964021,-1.59033400730998e-05,-2.03740536613089e-06
-7.42793127464838e-05,-0.00029683114867396,3.47956546684741e-05,3.15421419576765e-05
-2.95758265004055e-05,-0.00027388335906764,7.70636006870489e-05,5.67018613206762e-05
-1.48773202226949e-05,-0.000256955638942459,9.18711429928152e-05,7.16758251093675e-05
-2.92301195401024e-05,-0.00024758578822528,7.83850856864811e-05,7.92156008257894e-05
-5.31911881680005e-05,-0.000248992457925824,5.32963621240411e-05,8.06994068901896e-05
-7.31825872172467e-05,-0.000255095973914622,3.31644061888901e-05,7.444726122333e-05
-8.3172326277037e-05,-0.000266182438503649,2.25911785038551e-05,6.19765447252256e-05
-8.68558935437139e-05,-0.000278532521637232,1.84880670007354e-05,5.12307206544362e-05
-8.83817725409134e-05,-0.000282096879607253,1.77333059554361e-05,4.86642340626237e-05
-8.72731260820106e-05,-0.000279879586689448,1.76648771619863e-05,5.06445713713776e-05
-8.86559539232227e-05,-0.00028376580976044,1.52153131091727e-05,4.83730690670891e-05
-9.45806559670362e-05,-0.000292623060501996,1.01895235570214e-05,4.05766731185554e-05
-9.84072743897005e-05,-0.000297534483524232,6.33003625112549e-06,3.53625403594864e-05
-9.72867070011322e-05,-0.000297987478851526,6.10583551947607e-06,3.84475232783738e-05
-9.56177768479453e-05,-0.000290989893137806,7.23629927606493e-06,4.52844495555805e-05
-9.70244465484885e-05,-0.0002899170094679,6.71259001710673e-06,4.76723587924249e-05
-9.8800665068666e-05,-0.000297033804478276,5.08967297321297e-06,4.34063190789701e-05
-9.71198139858135e-05,-0.000304830092479592,4.25241221668559e-06,3.55949581907636e-05
-9.86814557720098e-05,-0.000317180175613175,4.18379986017718e-06,2.66622923934459e-05
-9.80377255700663e-05,-0.000326824207712663,4.86895792490469e-06,1.82959590213112e-05
-9.38057955387709e-05,-0.00033129455633727,8.12989979622836e-06,1.44077477980826e-05
-8.76665167609761e-05,-0.000331938286539214,1.39222914803781e-05,1.76745018888364e-05
-8.46386006259084e-05,-0.000327670593718922,1.76056422682944e-05,2.37290920182527e-05
-8.65340284427421e-05,-0.000327491779773937,1.50860782686417e-05,2.45297335233203e-05
-9.3173986266493e-05,-0.000337433835115065,8.62063293218964e-06,1.7800472830561e-05
-9.82165395150506e-05,-0.000349223634554364,3.25357051186005e-06,8.09046360395804e-06
-0.000102007395148718,-0.000361156485149651,-6.18668131913879e-07,-1.33907575980563e-06
-0.000107741362317882,-0.000372135661371688,-6.01972401143162e-06,-1.12435368977966e-05
-0.000113320357401392,-0.000383424781765031,-1.17615882138906e-05,-2.00317218462948e-05
-0.000113439566698048,-0.000388276600138938,-1.21079034520588e-05,-2.22693282223825e-05
-0.000106978422819282,-0.000385785125838824,-5.35044792488935e-06,-1.72860627082582e-05
-9.93847906222815e-05,-0.000381457828370203,2.38911580090393e-06,-1.27373466549761e-05
-9.68694744628354e-05,-0.000385499023526849,4.54262612309592e-06,-1.43953918046551e-05
-0.000100576883588844,-0.000393521809191812,1.60478320330634e-06,-1.78735146266047e-05
-0.000103533274145918,-0.000390887283735709,-1.55288614083623e-06,-1.64643127246242e-05
-0.00010406971598087,-0.000386941456016389,-2.77115130156756e-06,-1.18204502925262e-05
-0.000106430060054663,-0.000389945530292125,-3.34566513982776e-06,-8.65381826190897e-06
-0.000106000906586701,-0.000382435344602784,-3.48492318219123e-06,-2.63299283081798e-06
-0.000102865702084643,-0.000362753889724844,-1.20324463559375e-06,1.58633978324275e-05
-9.92894231849565e-05,-0.000339138528057249,3.85108602002861e-06,4.55624928097931e-05
-9.53793582546328e-05,-0.000313150901386195,8.30497033847089e-06,7.15045465899812e-05
-9.42230280770676e-05,-0.000299167650888422,8.12204009975286e-06,8.18688954016086e-05
-0.000100791460322825,-0.000305616873837523,2.75112499766451e-06,8.06992624437992e-05
-0.000108027464629857,-0.000307524222584022,-4.2661307238003e-06,7.98311034350224e-05
-0.000112271315590818,-0.000300514715940637,-8.20618928177474e-06,8.331363589865e-05
-0.000110650069156293,-0.000300729292674618,-6.85877620624962e-06,8.41722615454683e-05
-0.000106585032140316,-0.000315022487343698,-2.31458359512898e-06,7.32654885778963e-05
-0.000103855139246889,-0.000337398072326068,9.41607996076176e-07,4.76877932567907e-05
-0.00010415316248853,-0.000370574019585491,5.59498290475028e-07,1.27247018791776e-05
-0.000106287008898676,-0.000407338166674266,-1.25575059664674e-06,-2.16797433897638e-05
-0.000106000906586701,-0.000432002570152436,-7.53182396519645e-07,-4.80696266012277e-05
-0.000102865702084643,-0.000449323680956583,2.50232347740431e-06,-6.69365241230467e-05
-0.000100588804518509,-0.000464093712812287,5.36813354381582e-06,-8.40282374995685e-05
-0.000100457674292187,-0.000483655958393571,5.32641938583306e-06,-0.000103011560693128
-0.000103676325301905,-0.000502860576084887,2.53578026134864e-06,-0.000124178780463955
-0.000108850008776784,-0.000524961979684948,-2.68115427417513e-06,-0.000148864233890768
-0.000117862231603994,-0.000551080736582323,-1.12131621145588e-05,-0.000177860270254442
