BCL,BCC,BCL_Filtered,BCC_Filtered
-,-,-,-
-0.00360347054025355,-0.00120211846841088,-4.1711550311095e-20,4.92368735419639e-20
-0.00370829127480336,-0.00120805509138436,-7.97552127155974e-05,-8.17442226532627e-06
-0.00370316527504714,-0.0012219787372338,-0.000108222603613289,-1.81031898970156e-05
-0.00369733594044065,-0.00123174197862995,-8.94212225242822e-05,-2.88912428755333e-05
-0.00368957541522833,-0.00124092109447247,-6.57055696910822e-05,-3.87030521762194e-05
-0.00368317387599789,-0.00124959953126905,-6.07597205076129e-05,-4.77747090453911e-05
-0.0036808135319241,-0.00126053102377242,-6.27180819314686e-05,-5.73956351725814e-05
-0.00367819092739766,-0.00127004392564559,-5.63872056705736e-05,-6.63820563257048e-05
-0.00367754719719572,-0.00127335794409263,-4.57991503278683e-05,-7.12513064409994e-05
-0.0036754729554339,-0.00127381093941992,-4.01517138443701e-05,-7.08011065763648e-05
-0.00366842768600152,-0.00127154596278345,-3.70162957979911e-05,-6.8446261586595e-05
-0.00366296790021467,-0.00127120025582315,-2.97556983789276e-05,-6.80945759184646e-05
-0.00366373083971327,-0.00127252347901603,-2.04504398636133e-05,-6.85842977918485e-05
-0.00366040490033656,-0.00126707561415885,-1.49886502904572e-05,-6.45208198262926e-05
-0.00365407488668411,-0.00125588186120283,-9.98316486098728e-06,-5.3189378060507e-05
-0.0036383034967365,-0.00124289996879697,6.4168620507127e-06,-3.87036614363104e-05
-0.00361143372127019,-0.00123207576466058,3.86042374386701e-05,-2.74483643525968e-05
-0.00358681700151068,-0.00122183568607781,7.14116967457941e-05,-2.02125585746664e-05
-0.00358151218780948,-0.00121333606322623,7.87643624728915e-05,-1.13582678838924e-05
-0.00358630440153506,-0.00120593316590388,4.9457920527048e-05,3.41431338195038e-06
-0.00367782137857803,-0.00117741830214371,3.49963914172553e-06,2.04810273473934e-05
-0.00368288777368592,-0.00117483146040627,-2.47905891560235e-05,3.11719560001315e-05
-0.00367902539247426,-0.00117408044183734,-2.23531881529548e-05,3.02129646426394e-05
-0.00367535374613725,-0.00118317611117221,-8.09541072881366e-06,1.97666091750786e-05
-0.00367711804372776,-0.00119854218951119,-4.87432035736573e-06,6.17877289675082e-06
-0.00368126652725139,-0.00120898492389827,-1.22965824254238e-05,-4.98453201301208e-06
-0.00368280432717826,-0.00121437318410714,-1.60408858937412e-05,-1.10185088669469e-05
-0.00368558190379035,-0.00121765143976518,-1.28440105261368e-05,-1.19998970809918e-05
-0.0036887886338704,-0.00121474273292677,-1.11721924441506e-05,-9.98040199891414e-06
-0.00368781111763782,-0.00121123797960508,-1.29987498018382e-05,-7.25537476910154e-06
-0.00368487856894008,-0.00120958097038156,-1.15314135858186e-05,-4.90498396107084e-06
-0.00368442557361278,-0.00121046311917681,-6.23887177442831e-06,-3.65491836249707e-06
-0.00368645213165594,-0.00121121413774575,-4.9629329263095e-06,-5.32389575495172e-06
-0.00368818066645745,-0.00121523149104306,-9.05221803880159e-06,-1.10690143848083e-05
-0.0036884429269101,-0.00122513778359519,-9.8781190503938e-06,-1.80284858156229e-05
-0.00368609450376597,-0.00122895248108819,-3.88164715863142e-06,-2.05154428721695e-05
-0.00368248246207729,-0.0012224317325611,9.36562029187079e-07,-1.61120566472227e-05
-0.00368506930381473,-0.00121560103986269,-1.50650936713183e-06,-8.67754317961444e-06
-0.00368779919670815,-0.00121277577953194,-6.15130350403152e-06,-3.54584046106981e-06
-0.00369116089887386,-0.00121130950518307,-7.05192331906296e-06,-1.20988381480989e-06
-0.00369372389875197,-0.00120642192402017,-7.36433262745225e-06,2.22788651944803e-06
-0.00369716904742533,-0.00120062835220267,-1.18629584997272e-05,9.36760037658896e-06
-0.003700959903059,-0.00119289166884969,-1.71505632756569e-05,1.86784576878537e-05
-0.00370308182853948,-0.00118556029710533,-1.7289544319512e-05,2.73864260630802e-05
-0.00370142481931596,-0.00117695338588675,-1.37329296341784e-05,3.51995260506375e-05
-0.00369849227061822,-0.00116851336768349,-1.19571710202082e-05,4.41521261636422e-05
-0.00369708560091767,-0.00116009719133956,-1.2007523389891e-05,5.54871082934545e-05
-0.00369619153119275,-0.00114887959652421,-9.56070104692246e-06,6.76662241113557e-05
-0.00369271061973039,-0.00113739974125622,-3.95999380375338e-06,7.78586229805662e-05
-0.00368561766657935,-0.00113211876941435,1.24690871653513e-06,8.52075614241678e-05
-0.00368108771330641,-0.00112810141611704,4.50354246886433e-06,9.16778836067343e-05
-0.00368009827614416,-0.00112110383040332,7.68181660818403e-06,9.87187496285726e-05
-0.00367672465304879,-0.0011167050073567,1.20944103314702e-05,0.00010375437656599
-0.00366929791386711,-0.00111985213278843,1.72845849682783e-05,0.000101808556758816
-0.00366388581179892,-0.00113286978798329,2.29611272860917e-05,9.09007812354532e-05
-0.00365945122596331,-0.00115081078713004,2.84985371807339e-05,7.42040851014453e-05
-0.00365693590980386,-0.0011683703165275,3.15498669846013e-05,5.64404199353546e-05
-0.00365645907261724,-0.00118618018544794,3.07990450837893e-05,4.01002020033589e-05
-0.00365774653302112,-0.00120267875210516,2.92697412938802e-05,2.60661688228555e-05
-0.00365742466792015,-0.00121405131900616,3.11853110696698e-05,1.53712676186488e-05
-0.00365262053326491,-0.00122196681630414,3.56226392096908e-05,7.69518598849812e-06
-0.00365109465426771,-0.00123142011352897,3.6423264972865e-05,-7.20674979985991e-07
-0.00365943930503364,-0.00124825246621683,2.88063709784489e-05,-1.47174468445374e-05
-0.003674400071764,-0.00126918561870966,1.40116134943479e-05,-3.52817689713799e-05
-0.00369089863842122,-0.001291883068793,-2.33202177300278e-06,-5.83859813987782e-05
-0.00370274804250884,-0.00131425865377537,-1.42047596319918e-05,-7.87383796255028e-05
-0.00370669387022816,-0.0013311029273929,-1.79049931039969e-05,-9.34622515375379e-05
-0.00370259307042319,-0.00133972175954114,-1.36620021123988e-05,-0.000102600997339834
-0.00369509480566351,-0.00134570606623328,-5.80692942190822e-06,-0.000108094569594035
-0.00368961117801733,-0.00135221489383071,-4.07924099034809e-08,-0.000112641443417851
-0.00368897936874505,-0.00135753162846158,6.82943226771177e-07,-0.000117607566715267
-0.00369197152209112,-0.00136120327479859,-2.14075360101322e-06,-0.000120770221502828
-0.00369470141498455,-0.00135824688424151,-4.55047507880836e-06,-0.000117111288821348
-0.0036948206242812,-0.00134450205233705,-3.75712473283277e-06,-0.000103340186077869
-0.00369139931746717,-0.00132436760213182,-8.00094635382026e-07,-8.20791011642288e-05
-0.00369085095470255,-0.00130422123099692,4.00140737327038e-08,-6.13444745385763e-05
-0.00369621537305208,-0.00129168041298869,-4.37873165878089e-06,-4.91870635506575e-05
-0.00370372555874142,-0.00128937967356322,-1.188656000741e-05,-4.73725292897353e-05
-0.00370926879103594,-0.00129331358035288,-1.67767012516881e-05,-4.93473769922137e-05
-0.00370847008874834,-0.00128906972939192,-1.6351144412347e-05,-4.54806684948759e-05
-0.00370625279583054,-0.00127390630685725,-1.36562821095832e-05,-3.19934808920673e-05
-0.00370701573532913,-0.00125757463321535,-1.25620222940867e-05,-1.43190800378646e-05
-0.0037058474842219,-0.0012432695176166,-1.25164276548572e-05,-2.18707375412516e-07
-0.00370308182853948,-0.00123348243436113,-1.03028545490822e-05,9.30397544952089e-06
-0.0037005426705207,-0.00122244365349076,-4.90868756580759e-06,1.9401770746803e-05
-0.00369268677787106,-0.00120887763553128,2.2373114793869e-06,3.23263090226025e-05
-0.00368391297363716,-0.00119817264069156,1.04271590176638e-05,4.36061509021143e-05
-0.0036755444810119,-0.0011924029107334,1.97569180476296e-05,4.93576824870806e-05
-0.00366742632790961,-0.00118548877152734,2.86949119241822e-05,5.32150347543748e-05
-0.00366156123051412,-0.00117770440445569,3.48680945993887e-05,6.15172363692357e-05
-0.00365775845395079,-0.00116646296778101,3.8169571811286e-05,7.37839966233547e-05
-0.00365599415636028,-0.00115429169859241,3.98148704132093e-05,8.33176529074018e-05
-0.00365995190500926,-0.00114910609418786,3.81218822195093e-05,8.71248221468112e-05
-0.00366807005811155,-0.00114701993149638,2.90899119425273e-05,8.97894697956628e-05
-0.00368369839690318,-0.00114042765739129,1.27800257902958e-05,9.54511339983774e-05
-0.00370167515883894,-0.00113441950883982,-4.11601384226619e-06,0.000100331891317797
-0.00371325038154425,-0.00113581425761069,-1.46226514116176e-05,9.68346563400529e-05
-0.00371596835350802,-0.00115007168949078,-1.84337684912005e-05,8.26923122029377e-05
-0.00371791146504351,-0.00117014653504768,-2.02470252978094e-05,6.26376378936224e-05
-0.0037211420369829,-0.00118795640396812,-2.29181252186528e-05,4.24189226687513e-05
-0.00372380040429833,-0.00120432384039902,-2.51117715333937e-05,2.44157661853415e-05
-0.0037233593299007,-0.0012212157977352,-2.49585751447219e-05,8.42359414515825e-06
-0.00372093938117858,-0.00123493678778033,-2.30713513686061e-05,-6.48376221796469e-06
-0.003719997627735,-0.00124739415928091,-2.13219129874966e-05,-2.11952596058133e-05
-0.00371906779522108,-0.00126124627955236,-2.05091785727988e-05,-3.54567094222528e-05
-0.00371912739986941,-0.00127319105107731,-2.03013200848092e-05,-4.74296954176257e-05
-0.00371896050685409,-0.00128065355304799,-2.08098968659377e-05,-5.61849161319199e-05
-0.00372135661371688,-0.00128725774808274,-2.33978673815314e-05,-6.41916827077437e-05
-0.00372846148779759,-0.0012976408778215,-2.94199256982086e-05,-7.49101230453746e-05
-0.00373659156182954,-0.00131024130047806,-3.76492858745275e-05,-8.79252020941695e-05
-0.00374072812442351,-0.00132032640697517,-4.33499976506835e-05,-9.8845130914642e-05
-0.00373908303612966,-0.00132448681142848,-4.14343860516527e-05,-0.000104080641526965
-0.0037309171993087,-0.00132344969054757,-3.11560733046175e-05,-0.000103206779983681
-0.00371469281403379,-0.00131678589086448,-1.66404227612074e-05,-9.66303347115791e-05
-0.00369896910780484,-0.00130292184966337,-2.74792263866942e-06,-8.4371857230598e-05
-0.00369122050352219,-0.00128761537597271,7.63489055863445e-06,-6.82640422657923e-05
-0.00368677399675691,-0.00127089031165184,1.2159479203013e-05,-5.1890569910956e-05
-0.00368789456414548,-0.00125331886132472,8.78763124674258e-06,-3.60283822595316e-05
-0.00369731209858132,-0.00123550899240428,-2.50726216158101e-07,-1.6804031728592e-05
-0.00370557330283959,-0.00120990283548253,-7.20656710335798e-06,8.74178979842081e-06
-0.00370370171688209,-0.00118079192523908,-5.70355758845598e-06,3.69792520815841e-05
-0.00369467757312522,-0.00115647322872122,2.15949471074305e-06,6.04888289791615e-05
-0.00368756077811484,-0.00114403969907997,9.07849225814256e-06,7.55551043985388e-05
-0.00368648789444494,-0.00113446719255848,1.17070646887595e-05,8.42627637598306e-05
-0.00368540308984536,-0.00112733847661844,1.24359054328067e-05,8.9929509043385e-05
-0.00368325732250555,-0.00112577683483224,1.30187694625861e-05,9.33490117130306e-05
-0.00368479512243242,-0.00112715966267345,1.19921157948262e-05,9.35990690014507e-05
-0.00368888400130773,-0.00112886435561564,9.43769237227871e-06,9.00115212796475e-05
-0.00368852637341776,-0.00113735205753756,8.92662689275453e-06,8.26472324924568e-05
-0.0036839010527075,-0.00114861733607157,1.21009318948602e-05,7.25457587270205e-05
-0.00368180296908635,-0.00116000182390224,1.56409675226374e-05,6.20621619409602e-05
-0.00368144534119638,-0.0011683703165275,1.68763136869639e-05,5.35977139431711e-05
-0.00367821476925699,-0.00117486722319527,1.8903800650255e-05,4.75870610170239e-05
-0.00366973898826474,-0.00118113763219938,2.64851427786088e-05,4.28008802710533e-05
-0.00365874789111304,-0.00118654973426758,3.95773770841254e-05,3.85649308331161e-05
-0.00364373944066402,-0.00119025714339358,5.44949182587389e-05,3.51784094125432e-05
-0.00362780115770108,-0.00119342811068464,6.88059556356121e-05,3.19874514447071e-05
-0.00361683390240871,-0.00120117671496729,8.08639705275395e-05,2.6774888689933e-05
-0.0036116721398635,-0.00121105916566009,8.67633397808619e-05,1.78661863921158e-05
-0.00361483118622489,-0.00122286088602906,8.30285556328066e-05,5.737357794904e-06
-0.00362589380895458,-0.00123837001552403,7.17431473847956e-05,-8.06257662795713e-06
-0.00363960287807005,-0.00125422485197931,5.83412649232505e-05,-2.25260007652163e-05
-0.00365443251457408,-0.00126993663727859,4.43889981360949e-05,-3.71073252186144e-05
-0.00367116949982461,-0.00128455169704865,2.69298985705358e-05,-5.11044020469782e-05
-0.00369287751274571,-0.00129853494754642,4.89233471913031e-06,-6.40907707718804e-05
-0.00371779225574686,-0.00131242283060687,-1.89498291161164e-05,-7.64288605328584e-05
-0.00374207518947573,-0.00132584579741036,-4.31552410016167e-05,-8.84974590496238e-05
-0.00376642964878259,-0.00133790977823196,-6.88896180889485e-05,-9.939381116555e-05
-0.00379227422429766,-0.00134452589419638,-9.3218174937185e-05,-0.000106585006552473
-0.00380529187949251,-0.00134803064751808,-0.00010654084991546,-0.000106892682227776
-0.00380005859136931,-0.00134103306180436,-0.000102066396676711,-9.86118377625545e-05
-0.00378420375491403,-0.00132555969509838,-8.5315780691993e-05,-8.38232959620285e-05
-0.00376719258828119,-0.00131143339344462,-6.90858017347429e-05,-6.82364444992201e-05
-0.00375862143985161,-0.00130270727292939,-5.98756802683091e-05,-5.68621535802246e-05
-0.00375152848670056,-0.00129547126862235,-5.36987744701376e-05,-4.91438144380996e-05
-0.00374305270570831,-0.00128554113421089,-4.47099814064143e-05,-3.9774415840804e-05
-0.00373052380862974,-0.0012733341022333,-3.26085839448952e-05,-2.50958763822841e-05
-0.00371739886506789,-0.00125682361464641,-1.9800945372952e-05,-7.11609473940091e-06
-0.00370370171688209,-0.00124007470846621,-5.86108843487847e-06,1.00409940410641e-05
-0.00368587992703199,-0.00122399337434729,1.11345943730184e-05,2.58587983516352e-05
-0.0036675336162766,-0.00120937831457724,2.95115494417071e-05,4.30005425142191e-05
-0.00365281126813956,-0.00119205720377309,4.40421688259583e-05,6.1663976648327e-05
-0.00364514611036456,-0.00117533213945223,5.12123379987841e-05,7.72758474229587e-05
-0.00364425204063964,-0.00116918093974477,5.17399374787561e-05,8.50209686932252e-05
-0.0036481859474293,-0.00117152936288889,4.71882604026085e-05,8.50235955156159e-05
-0.00365912936086234,-0.00117356784186172,3.66432320761066e-05,8.16247456859556e-05
-0.00367562792751955,-0.00117795474397866,1.89233091931198e-05,7.83845781296578e-05
-0.00369709752184734,-0.00118340260883585,-2.87097916464586e-06,7.50827012222767e-05
-0.00371526501865774,-0.00118832595278775,-2.14430963290605e-05,6.91974167345774e-05
-0.00372471831588258,-0.00119926936622079,-3.08138385744657e-05,5.90115205749209e-05
-0.00372372887872034,-0.00121461160270045,-3.09891549885371e-05,4.50243147922495e-05
-0.00371869824640144,-0.00123088367169402,-2.69392893662524e-05,2.91517800626279e-05
-0.00371655247906163,-0.00124661929885264,-2.40214792645567e-05,1.31348710321382e-05
-0.00371657632092096,-0.00126239068880026,-2.48968488205105e-05,-2.30609231199734e-06
-0.00371953271147804,-0.00127891309731681,-2.94130029902683e-05,-1.69720218737802e-05
-0.00372556470188884,-0.00129164465019969,-3.53282183187158e-05,-3.01824545891589e-05
-0.00372931979473351,-0.00130116947300252,-3.87327242233397e-05,-4.06808546741517e-05
-0.00372455142286726,-0.00130950220283879,-3.53911573949734e-05,-4.7456218241602e-05
-0.00371161721418006,-0.00131325729568346,-2.35073265226826e-05,-5.00316712920475e-05
-0.00369431994523525,-0.00130933530982347,-5.77056232049764e-06,-4.78799533471117e-05
-0.0036770703600091,-0.00130220659388343,1.18257907560224e-05,-4.06108293574898e-05
-0.00366243145837971,-0.00129225261761264,2.40205962722214e-05,-2.95225772723781e-05
-0.00365703127724119,-0.00128163106928057,2.97145078811166e-05,-1.81088314833123e-05
-0.00365613720751626,-0.00127084262793318,3.14714024978745e-05,-9.54973874717127e-06
-0.00365470669595639,-0.00126484640031137,3.16533420663516e-05,-3.59482747949649e-06
-0.00365538618894733,-0.00126072175864707,2.96879971618955e-05,2.93153907474481e-06
-0.00366227648629406,-0.00125020749868199,2.38510862699031e-05,1.20262258522764e-05
-0.00367133639283993,-0.00123864419690634,1.50898330260135e-05,2.15634532124446e-05
-0.00367711804372776,-0.00123475797383535,7.39731726920277e-06,2.69335001756254e-05
-0.00368093274122076,-0.00123690374117516,4.03782602726962e-06,2.53189315137513e-05
-0.00368107579237674,-0.001242506578118,4.96432227943493e-06,1.81738919503513e-05
-0.00367620013214351,-0.0012493015080274,8.66568069393318e-06,9.88110168847306e-06
-0.00367041848125568,-0.00125666864256076,1.459158001227e-05,4.11837758348687e-06
-0.00366317055601898,-0.00125906474942355,2.19062230517204e-05,1.01452038594911e-06
-0.00365846178880106,-0.0012611270702557,2.7400573600003e-05,-2.53942517173362e-06
-0.00365818760741875,-0.00126788623737611,2.76298783706891e-05,-9.56119806197013e-06
-0.00366195462119309,-0.00127769716249091,2.31543266869045e-05,-1.9706063621219e-05
-0.00366812966275988,-0.00128728158994207,1.81474892556541e-05,-2.93924089250372e-05
-0.00367221854163519,-0.00129194267344133,1.52360192155294e-05,-3.50705954900297e-05
-0.00367332718809409,-0.00129137046881738,1.2995127653803e-05,-3.59327353977184e-05
-0.00367746375068806,-0.00128891475730626,9.44595313924306e-06,-3.35254213557669e-05
-0.00368319771785722,-0.00128563650164822,5.60457989202323e-06,-2.97030773486509e-05
-0.00368508122474439,-0.00127913959498045,3.6442111466541e-06,-2.56053694543834e-05
-0.00368512890846305,-0.00127455003705919,3.26449166711306e-06,-2.19187552183202e-05
-0.0036876084618335,-0.00127204664182941,2.39168397243159e-06,-1.89948347614115e-05
-0.00369056485239058,-0.00126936443265464,7.50312363398917e-07,-1.66235791582337e-05
-0.00369061253610924,-0.00126464374450706,2.03754764548488e-07,-1.4366431044715e-05
-0.00369049332681258,-0.0012618542469653,1.46552610149317e-06,-1.21146913963204e-05
-0.00369050524774225,-0.00126016147495279,2.86355167306598e-06,-9.58720453371163e-06
-0.00369067214075757,-0.00125423677290897,3.24277514019938e-06,-5.33888772119078e-06
-0.0036903145128676,-0.00124477155475447,4.03748085247282e-06,2.34272362887291e-06
-0.00368931315477569,-0.00123497255056933,6.69303536523061e-06,1.25623894573941e-05
-0.00368746541067752,-0.00122593648588279,9.16345587056534e-06,2.08398211554816e-05
-0.00368984959661064,-0.00122275359766207,7.21274383132869e-06,2.28414283613376e-05
-0.00369970820544411,-0.00122572190914881,-5.32157170775893e-07,1.92356980248491e-05
-0.00370960257706657,-0.00122841603925324,-1.03434393314194e-05,1.52004639393807e-05
-0.00371700547438893,-0.00122992999732077,-1.68922143689813e-05,1.44155121034298e-05
-0.00371962807891536,-0.00122778422998096,-1.80787709919523e-05,1.50902936117714e-05
-0.00371872208826077,-0.00122774846719196,-1.58130492850369e-05,1.31963355548264e-05
-0.0037158014604927,-0.00123441226687504,-1.3031312394964e-05,8.19354700961832e-06
-0.00371501467913477,-0.0012371660016278,-1.10901640057116e-05,3.48766818103373e-06
-0.00371544383260273,-0.00123764283881443,-9.57542352065722e-06,2.00994065496669e-06
-0.00371327422340359,-0.00123634345748088,-7.29567185395003e-06,3.86304576258584e-06
-0.00370954297241825,-0.00123060949031171,-3.3139575589583e-06,8.2801397615651e-06
-0.00370606206095589,-0.00122355229994966,2.0230113654706e-06,1.50306987390519e-05
-0.00370185397278392,-0.00121538646312871,6.92069804574274e-06,2.27148492575126e-05
-0.00369902871245317,-0.00120954520759256,9.86543417665694e-06,2.79767092059219e-05
-0.00369842074504022,-0.00120930678899925,1.15230110260258e-05,2.83590300251824e-05
-0.00369695447069135,-0.00121130950518307,1.37636684423816e-05,2.48919272809766e-05
-0.00369460604754722,-0.00121626861192397,1.66503604254781e-05,2.06199578952998e-05
-0.00369392655455628,-0.00121865279785709,1.78722049488997e-05,1.76282017809134e-05
-0.00369654915908272,-0.00121932036991837,1.57624198208138e-05,1.63546919358667e-05
-0.00370125792630064,-0.00121951110479302,1.13244470430868e-05,1.61424504999724e-05
-0.0037074091260081,-0.00122072703961891,6.18537327604475e-06,1.50960855456859e-05
-0.00371334574898158,-0.00122381456040231,-1.3020078318478e-10,1.1032963670664e-05
-0.00372231028809013,-0.00123142011352897,-8.50732467316008e-06,4.22222726202684e-06
-0.00373332522710116,-0.00123730905278379,-1.89371654818818e-05,-2.3661307331806e-06
-0.00374343417545761,-0.00124189861070505,-2.93949229654347e-05,-7.18695432899262e-06
-0.00375312589127576,-0.00124799020576419,-3.85244294947307e-05,-1.25187926648469e-05
-0.00376045726302011,-0.0012554407868052,-4.55395662976128e-05,-2.04185383754071e-05
-0.00376299642103889,-0.00126312978643953,-4.89031544607828e-05,-2.82702186986281e-05
-0.00376198314201731,-0.00126638420023824,-4.73762674933895e-05,-3.15857431155315e-05
-0.00375794194686067,-0.00126580007468462,-4.2639775385779e-05,-2.9925130661473e-05
-0.00375269673780779,-0.00126199729812129,-3.88202451813454e-05,-2.65575354860866e-05
-0.00375287555175278,-0.00125795610296465,-3.86043564271183e-05,-2.31715907744214e-05
-0.00375528357954523,-0.00125424869383864,-4.10084736296952e-05,-1.87222330093173e-05
-0.00375750087246304,-0.00125012405217433,-4.31613100869588e-05,-1.29796611674076e-05
-0.00375607036090316,-0.00124235160603235,-4.26977322641457e-05,-6.95114809640548e-06
-0.00375100396579528,-0.00123492486685067,-3.80954493317196e-05,3.68830868476364e-07
-0.00374252818480302,-0.0012265563742254,-2.87630933036054e-05,1.11041583447664e-05
-0.00372917674357752,-0.00121381290041285,-1.62422993586553e-05,2.33220351914245e-05
-0.00371550343725106,-0.00120483644037464,-4.09947601468148e-06,3.12760204753027e-05
-0.00370767138646074,-0.00120449073341434,5.07892645088594e-06,3.28104918946081e-05
-0.00369902871245317,-0.0012056113008029,1.24717997475374e-05,3.25076173755661e-05
-0.00368909857804171,-0.00120320327301045,2.17923794391451e-05,3.48995790989434e-05
-0.00367612860656551,-0.00119975812433708,3.49340776721659e-05,3.8083765073074e-05
-0.00366132281192081,-0.00120064027313234,4.90873098025869e-05,3.70970269097071e-05
-0.00365049860778443,-0.00120912797505426,5.86853489672605e-05,3.06568167282952e-05
-0.00364934227760686,-0.00121797330486615,6.09257508994681e-05,2.13017204714071e-05
-0.00365003369152747,-0.00122698552769336,5.91842996822346e-05,1.134922467323e-05
-0.00364860317996759,-0.0012375474713771,5.92485296892988e-05,2.14065844604366e-06
-0.00364668391029143,-0.00124533183844875,6.1372130664207e-05,-4.83387163540961e-06
-0.00365071318451841,-0.00125004060566667,5.84625855352128e-05,-9.8455231413566e-06
-0.00366225264443473,-0.00125643022396745,4.47063038230267e-05,-1.66402515749971e-05
-0.00368164799700069,-0.00126893527918668,2.41435221993557e-05,-2.86639889464027e-05
-0.00370116255886332,-0.00128607757604585,6.7904753481011e-06,-4.42302213296846e-05
-0.00371013901890153,-0.0012990952312407,-3.02297217783343e-06,-5.82471210588171e-05
-0.00371470473496346,-0.00130841739823922,-9.71397211941341e-06,-6.7715707339976e-05
-0.00372273944155809,-0.00131376989565908,-1.72667201030384e-05,-7.26769573032581e-05
-0.00372915290171819,-0.00131579645370224,-2.24846597058222e-05,-7.3145613123777e-05
-0.00372627995766878,-0.00131043203535271,-2.05296575556496e-05,-6.88851279731225e-05
-0.00371701739531859,-0.00130261190549206,-1.29030845292322e-05,-6.16455661392921e-05
-0.0037101151770422,-0.00129592426394965,-5.27329536479519e-06,-5.3810333884363e-05
-0.00370566867027692,-0.00128760345504304,2.77965117677915e-07,-4.46549345627166e-05
-0.00369893334501584,-0.00127317913014764,6.10102529657981e-06,-3.12963838518674e-05
-0.00369039795937526,-0.00125470168916593,1.3161328609347e-05,-1.37070975254562e-05
-0.00368546269449369,-0.00123898990386664,1.89497334306056e-05,4.3210557593926e-06
-0.00368496201544774,-0.00122252709999842,2.12494789096137e-05,1.96490287422463e-05
-0.00368430636431613,-0.00120981938897487,2.00471503660957e-05,3.22290635338072e-05
-0.00368784688042682,-0.00119965083597009,1.52127895631325e-05,4.25323033434789e-05
-0.00369958899614745,-0.00119192607354677,6.09619407001357e-06,4.96125807434449e-05
-0.00371083043282213,-0.0011904955619869,-5.25011017956962e-06,5.28800840849726e-05
-0.00371791146504351,-0.00118836171557675,-1.36861057140164e-05,5.3482959484464e-05
-0.00371989033936801,-0.00118784911560113,-1.58171443233923e-05,5.30383412043416e-05
-0.00371907971615074,-0.00118942267831699,-1.31617655604774e-05,5.28494228205757e-05
-0.00371499083727544,-0.00118882663183371,-9.06462808651376e-06,5.43308308177554e-05
-0.00370906613523162,-0.00118296153443822,-4.64535478782847e-06,5.74986798098084e-05
-0.00370495341449698,-0.00118190057169798,3.5983044779972e-07,5.89332523927266e-05
-0.00370165131697961,-0.00118814713884277,4.7238810053283e-06,5.45105408339353e-05
-0.00369979165195177,-0.00119659907797569,6.32207462531756e-06,4.47660597499288e-05
-0.00370073340539535,-0.00120595700776321,4.94042379998881e-06,3.42264155627242e-05
-0.00370361827037443,-0.00121585137938567,2.41934627203822e-06,2.48231532983039e-05
-0.0037066819492985,-0.00122778422998096,6.74991512030934e-08,1.4030661557904e-05
-0.00370994828402688,-0.00123929984803795,-2.66842498538691e-06,7.90098599331652e-07
-0.00371333382805191,-0.0012516260893122,-6.98764920145863e-06,-1.14643921840391e-05
-0.00371979497193068,-0.00125985153078148,-1.3245560644414e-05,-2.03211214434704e-05
-0.00372875951103923,-0.00126962669310729,-2.06757151043069e-05,-2.8333474344079e-05
-0.00373530410142565,-0.00127662427882101,-2.78365073805666e-05,-3.75222304493548e-05
-0.00374069236163451,-0.00128284700410646,-3.33116990787795e-05,-4.38765912069865e-05
-0.0037435057010356,-0.0012823820878495,-3.63313909757693e-05,-4.2430672725742e-05
-0.00374534152420411,-0.00127428777660655,-3.65389489862929e-05,-3.52282907468559e-05
-0.00374139569648479,-0.00126783855365745,-3.32773190501864e-05,-2.89376177271385e-05
-0.00373394511544377,-0.00126479871659271,-2.61950043358321e-05,-2.62539337867917e-05
-0.00372511170656155,-0.00126333244224384,-1.70100233943131e-05,-2.49799128699908e-05
-0.00371826909293348,-0.00126301057714287,-9.31573361248763e-06,-2.41995746438864e-05
-0.00371428750242516,-0.00126315362829886,-5.38196490473129e-06,-2.51211324020457e-05
-0.00371174834440639,-0.0012634516515405,-3.92547914945313e-06,-2.59060885269864e-05
-0.00371067546073648,-0.00126014955402312,-2.19778224476771e-06,-2.22056059924049e-05
-0.00370920918638761,-0.00125221021486582,6.03791028675757e-07,-1.43459746396176e-05
-0.00370492957263765,-0.00124566562447939,3.49309282683367e-06,-8.11564218492428e-06
-0.00370174668441693,-0.00124275691764098,6.35881961522489e-06,-6.16164787484199e-06
-0.00369919560546849,-0.00124192245256439,1.01566171320873e-05,-4.25238245186912e-06
-0.00369483254521087,-0.00123660571793352,1.43588201189679e-05,6.92896906106309e-07
-0.00369198344302079,-0.00123230226232423,1.65143913623788e-05,4.30535058283547e-06
-0.00369327090342467,-0.0012352586528813,1.53431934255674e-05,1.25988428844503e-06
-0.00369639418699707,-0.00124337680598359,1.26390955882371e-05,-6.02129337235895e-06
-0.00369809887993925,-0.00124707229417993,1.10020928391832e-05,-1.05977151603425e-05
-0.00369738362415931,-0.00124677427093829,1.11222321410264e-05,-1.02665528440635e-05
-0.00369604848003676,-0.00124473579196547,1.25759621151809e-05,-8.17023427955348e-06
-0.00369311593133902,-0.00124264962927399,1.56732195979691e-05,-6.03394981860683e-06
-0.00368886015944839,-0.00123934753175661,2.01848306020453e-05,-2.57561848047944e-06
-0.00368540308984536,-0.00123428113664872,2.30210215674793e-05,1.90486415560115e-06
-0.00368814490366846,-0.00123183734606727,2.02016548438641e-05,4.82226589505432e-06
-0.00369696639162102,-0.001231169774006,1.20474754229681e-05,5.65072562168631e-06
-0.00370458386567735,-0.00123007304847676,4.11574893400942e-06,6.36242251899812e-06
-0.00370703957718847,-0.00122972734151646,1.16121611366753e-06,7.16350946560129e-06
-0.00370745680972676,-0.00123021609963275,1.45554438382555e-06,6.63319349393972e-06
-0.00370922110731727,-0.0012296081322198,-8.09803115242453e-07,6.88316843395768e-06
-0.00371677897672528,-0.00122473247198656,-7.92780501241989e-06,1.30722184575873e-05
-0.00372442029264094,-0.00121155984470605,-1.56274582241661e-05,2.53210879149412e-05
-0.00372631572045778,-0.00120093829637398,-1.80355946079948e-05,3.5847854418831e-05
-0.0037229778601514,-0.00120044953825769,-1.391138887662e-05,3.7710920909321e-05
-0.00371642134883531,-0.0012048483613043,-6.99854903634151e-06,3.30537756090062e-05
-0.00370984099565989,-0.00120785243558004,-1.64944818320969e-06,2.92286824661831e-05
-0.00370912573987995,-0.00120859153321931,3.86755489816525e-07,2.97027126631953e-05
-0.0037096979445039,-0.00120611197984886,-2.19976300627612e-07,3.26206103693706e-05
-0.00371111653513411,-0.00120254762187884,-1.72212410656364e-06,3.58644354570076e-05
-0.00371176026533605,-0.00119925744529113,-2.34401911112913e-06,3.88660330961428e-05
-0.0037116410560394,-0.0011988521336825,-1.59261737924227e-06,4.03179242887076e-05
-0.00371123574443076,-0.00120170123587258,-9.51909640589216e-07,3.82695418457631e-05
-0.00371226094438201,-0.0012060285333412,-2.03112658669135e-06,3.26151815427114e-05
-0.0037143113442845,-0.00121500499337941,-3.81716560597762e-06,2.44914684535965e-05
-0.00371459744659647,-0.00122665174166273,-3.51487608481501e-06,1.3502572475366e-05
-0.003712403995538,-0.00124230392231369,-8.30521367235236e-07,-1.36887507500755e-06
-0.00371054433051016,-0.00125736005648136,7.18008958773383e-07,-1.81990005241386e-05
-0.00371320269782559,-0.00127313144642898,-1.3850816907845e-06,-3.26111591525273e-05
-0.00371706507903725,-0.00128391988777637,-4.21785234502573e-06,-4.22018792243103e-05
-0.00371546767446206,-0.00128866441778329,-2.60406980364215e-06,-4.78631654677101e-05
-0.00370864890269333,-0.00129101284092741,3.82992189953884e-06,-5.06991125176825e-05
-0.00370422623778738,-0.00129200227808966,9.72444370929347e-06,-5.07789002025204e-05
-0.00370420239592805,-0.00129207380366765,1.04679428556285e-05,-4.9390929796668e-05
-0.00370717070741479,-0.00128999956190583,6.91770794585837e-06,-4.89675352471915e-05
-0.00371150992581307,-0.00128945119914122,2.84076872780374e-06,-4.92463709315304e-05
-0.00371609948373434,-0.00128932006891489,4.72524616752724e-07,-4.65953872176656e-05
-0.00371564648840704,-0.00128202445995953,4.19499521814122e-07,-3.926744557157e-05
-0.00371196292114037,-0.00127074726049586,3.57224512055347e-06,-3.06997029058237e-05
-0.00370719454927412,-0.00126572854910663,1.0210333458486e-05,-2.49076970514591e-05
-0.00370022080541973,-0.00126444108870274,1.79766954992154e-05,-2.06564055102768e-05
-0.00369464181033622,-0.00125430829848697,2.30452944158175e-05,-1.35917879839661e-05
-0.00369479678242187,-0.00124273307578165,2.3220776496757e-05,-3.19761383435835e-06
-0.00370084069376234,-0.00123577125285693,1.87212692184605e-05,6.17809612432562e-06
-0.00370920918638761,-0.00122977502523512,1.09495458604685e-05,1.19165774217589e-05
-0.00371705315810759,-0.00122189529072614,2.28094974728125e-06,1.73979396896961e-05
-0.00372469447402325,-0.0012117505795807,-3.97226208510301e-06,2.73253320013909e-05
-0.00372718594832337,-0.00120015151501605,-5.88615813738374e-06,4.05796786994168e-05
-0.00372706673902671,-0.00118882663183371,-5.11291725366969e-06,5.09061619620764e-05
-0.0037263753251061,-0.00118161446938601,-4.83827497162501e-06,5.48456772153528e-05
-0.00372853301337558,-0.00118272311584491,-5.89199990214112e-06,5.5889972578138e-05
-0.00372986815749813,-0.00117959983227252,-6.89278892577667e-06,5.87229758823122e-05
-0.00373153708765132,-0.00117372281394737,-7.61718296066311e-06,6.15585883720045e-05
-0.00373259805039156,-0.00117771632538535,-9.30556538928191e-06,5.79854803107408e-05
-0.0037355305990893,-0.00118918425972368,-1.14602788136041e-05,4.62228891597367e-05
-0.00373649619439222,-0.00120170123587258,-1.14946304173445e-05,3.22252276730355e-05
-0.00373383782707678,-0.00121104724473043,-8.6820038339435e-06,2.16921955208867e-05
-0.00373046420398141,-0.00121910579318439,-5.73519714105892e-06,1.29092151492213e-05
-0.00373044036212208,-0.00123004920661743,-4.91492134010852e-06,1.19061038337514e-06
-0.00373159669229965,-0.00124239928975101,-4.97069910288745e-06,-1.25710163672996e-05
-0.00372945092495983,-0.00125142343350789,-3.87642028648633e-06,-2.31017583920028e-05
-0.00372890256219521,-0.00125719316346605,-2.49117755741109e-06,-2.93056613332656e-05
-0.00372973702727181,-0.00126166351209065,-2.98400374362313e-06,-3.56254401183829e-05
-0.0037317516643853,-0.00126889951639769,-4.91704654927031e-06,-4.39833145388724e-05
-0.00373226426436092,-0.00127387054406825,-5.5155189802836e-06,-5.01768750691069e-05
-0.00373103640860536,-0.00127285726504667,-3.43942144160356e-06,-5.10030278759671e-05
-0.00372688792508173,-0.00127127178140114,-2.06046909687386e-07,-4.99402499429552e-05
-0.00372558854374817,-0.00127046115818388,2.02856401714433e-06,-5.15174263834571e-05
-0.00372519515306921,-0.00127147443720546,2.38155080617097e-06,-5.37243935983659e-05
-0.00372661374369942,-0.00126816041875842,8.91684256438339e-07,-5.1252821251642e-05
-0.00372948668774883,-0.00125863559595559,-2.23981485584614e-06,-4.42822953255214e-05
-0.00373419545496675,-0.00125206716370983,-6.58680516276267e-06,-3.84373530218983e-05
-0.00373929761286364,-0.00124791868018619,-1.13261343680932e-05,-3.61055273516872e-05
-0.003742742761537,-0.00124281652228931,-1.5217202470801e-05,-3.29016547533383e-05
-0.00374349378010593,-0.00123378045760277,-1.66494119170385e-05,-2.43210411871565e-05
-0.00374265931502934,-0.00121902234667673,-1.46164358996484e-05,-1.22122769419694e-05
-0.00373805783617841,-0.00120784051465038,-1.03889264487202e-05,-2.47643135323291e-06
-0.00373437426891173,-0.00120358474275975,-7.25518775702481e-06,1.32537054678492e-06
-0.00373414777124809,-0.00120254762187884,-7.37696011117916e-06,1.28840489330923e-07
-0.00373725913389082,-0.00120391852879039,-9.42389107778899e-06,-3.02982718745156e-06
-0.00373748563155446,-0.00120519406826461,-1.03181133005726e-05,-5.27777373271429e-06
-0.00373545907351131,-0.00120346553346309,-8.68744591297058e-06,-4.41190860155805e-06
-0.00373204968762694,-0.00119625337101539,-5.5738634663102e-06,8.4784636525528e-07
-0.00372978471099047,-0.00118503577620004,-2.54659795202136e-06,1.02519335071739e-05
-0.00372753165528367,-0.00117334134419807,-5.01183385869328e-07,2.17038689347784e-05
-0.00372567199025583,-0.0011623025633277,2.60358077891493e-07,3.17322049496426e-05
-0.00372589848791948,-0.00115466124741204,2.80862478035626e-07,3.71090875747947e-05
-0.0037260296181458,-0.00115424401487374,1.02900881060362e-06,3.70967438033287e-05
-0.0037226321531911,-0.00115649707058055,3.43106986610867e-06,3.40093704778181e-05
-0.0037191631626584,-0.001158976623951,6.61704628763074e-06,3.07171245573887e-05
-0.00371643326976498,-0.0011607766843305,9.41140431924236e-06,2.78889882745398e-05
-0.00371364377222322,-0.0011623383261167,1.2649758964052e-05,2.46870050552828e-05
-0.0037077905957574,-0.00116647488871067,1.83367175623068e-05,2.15514212597816e-05
-0.00369850419154788,-0.00116630799569535,2.64019540522683e-05,2.0431637709666e-05
-0.00369216225696577,-0.00116355426094259,3.37347243065521e-05,2.21102428205852e-05
-0.00368922970826803,-0.00116031176807354,3.67923456341371e-05,2.50994730015226e-05
-0.00369114897794419,-0.00115826136817106,3.42653022684909e-05,2.77763833435439e-05
-0.00369780085669761,-0.00115518576831733,2.73578404150178e-05,3.00020873430214e-05
-0.00370682500045448,-0.00115255124286123,1.88019165738638e-05,3.17798879660344e-05
-0.00371398947918352,-0.00115337378700815,1.1685103456157e-05,3.18267533369831e-05
-0.0037177088092392,-0.00115640170314322,7.77827132982159e-06,2.88475849496536e-05
-0.00371886513941676,-0.00116156346568844,6.33948775016352e-06,2.34050239479584e-05
-0.00372028373004697,-0.00116783387469255,5.2094372764523e-06,1.73064905394162e-05
-0.00372269175783943,-0.00117387778603302,3.1236477505199e-06,1.15895042566735e-05
-0.00372527859957687,-0.00118044621827878,1.98551029189335e-07,6.06031073785129e-06
-0.00372914098078853,-0.001185536455246,-3.37677206296397e-06,4.52397922930036e-07
-0.00373268149689922,-0.0011920214409841,-7.53682856250507e-06,-4.85365214208404e-06
-0.00373765252456978,-0.00119673020820202,-1.11799913914255e-05,-9.1589709949892e-06
-0.00373845122685738,-0.00120002038478973,-1.25677680578301e-05,-1.19506064467426e-05
-0.00373722337110182,-0.00120275027768316,-1.15482762680268e-05,-1.32173789395698e-05
-0.00373611472464292,-0.00120327479858844,-1.00612824500109e-05,-1.35321296857925e-05
-0.00373642466881422,-0.0012037754776344,-9.77655406347073e-06,-1.34743322835491e-05
-0.00373698495250851,-0.00120486028223397,-1.04452214768244e-05,-1.28144616660012e-05
-0.00373728297575015,-0.00120421655203203,-1.11877190983203e-05,-1.08986261456121e-05
-0.00373863004080236,-0.00120095021730365,-1.19539076998765e-05,-8.08047115203546e-06
-0.00374023936630722,-0.00120079524521799,-1.26866066456254e-05,-5.86530230861763e-06
-0.00373908303612966,-0.00120179660330991,-1.24049104522307e-05,-5.03883137674048e-06
-0.00373773597107744,-0.00120096213823331,-1.05973246605809e-05,-4.53034409945891e-06
-0.00373622201300991,-0.00120164163122425,-8.57793069244602e-06,-2.9909093469971e-06
-0.00373537562700365,-0.00120010383129739,-7.78004019623077e-06,-7.12690057394927e-07
-0.00373531602235532,-0.00119955546853277,-7.23337049352309e-06,1.13506607970817e-06
-0.00373243115737624,-0.00119987733363374,-4.57676798178417e-06,2.51545437722057e-06
-0.00372775815294732,-0.00119880444996383,3.51050383379949e-07,4.23049246677915e-06
-0.00372414611125863,-0.00119836337556621,4.64406886266873e-06,5.74205307054876e-06
-0.00372320435781505,-0.00120096213823331,5.68286826459694e-06,4.96247227126738e-06
-0.00372447989728927,-0.00120663650075415,4.05848529504423e-06,8.99729595939239e-07
-0.00372693560880039,-0.00121196515631468,2.20962194200683e-06,-4.62951251047165e-06
-0.00372855685523491,-0.00121809251416281,1.07536523545306e-06,-8.89948635447433e-06
-0.00373030923189576,-0.0012223602069831,-5.55658099750874e-07,-1.13185929399044e-05
-0.00373296759921119,-0.00122528083475118,-3.51603381952388e-06,-1.36638991243064e-05
-0.00373624585486924,-0.00122958429036047,-6.38238956505694e-06,-1.74724251239815e-05
-0.00373787902223343,-0.00123577125285693,-6.9149079293169e-06,-2.20301144604994e-05
-0.00373497031539502,-0.0012402177596222,-5.00520937255968e-06,-2.5204088758567e-05
-0.00373412392938876,-0.00124186284791606,-3.32832728865967e-06,-2.58033342456239e-05
-0.00373539946886298,-0.0012401819968332,-4.51211990867292e-06,-2.46025419843561e-05
-0.00373866580359136,-0.00124062307123083,-7.76631163304793e-06,-2.29066190854405e-05
-0.0037409069383685,-0.00123926408524895,-8.97499296195711e-06,-2.05010850424165e-05
-0.00373584054326061,-0.0012345314761717,-4.75964075646776e-06,-1.57994191267316e-05
-0.003727591259932,-0.00122754581138765,3.61472378997579e-06,-8.37601400908419e-06
-0.00372164271602885,-0.00122081048612657,1.10131625700976e-05,-5.44762145389247e-07
-0.00371886513941676,-0.00121687657933692,1.33754543156527e-05,4.73718347400394e-06
-0.003719926102157,-0.00121353871903054,1.13895433641438e-05,7.32072065410291e-06
-0.00372384808801699,-0.00121117837495675,8.86424049075458e-06,9.77268761364659e-06
-0.00372515939028021,-0.00120964057502988,8.13877869513274e-06,1.34822499339921e-05
-0.00372396729731365,-0.0012056113008029,8.14999663334379e-06,1.65265931096504e-05
-0.00372575543676349,-0.00120582587753689,6.85842118089902e-06,1.66584763030588e-05
-0.00372953437146749,-0.00120756633326807,4.18662500695901e-06,1.50136119933962e-05
-0.00373090527837904,-0.00120856769135998,1.81389303675184e-06,1.46990061664562e-05
-0.00373256228760256,-0.00120694644492545,9.3427904022258e-07,1.61789247367238e-05
-0.00373208545041594,-0.00120621926821585,1.27115045114331e-06,1.64859379165993e-05
-0.00373138211556566,-0.0012094617610849,2.02169312987788e-06,1.3463004540963e-05
-0.00373090527837904,-0.00121440894689613,2.83783660032369e-06,8.50747121625406e-06
-0.00373010657609144,-0.00121921308155138,3.77250734805354e-06,3.89088045862111e-06
-0.00372899792963254,-0.00122287280695872,4.81638622051618e-06,-7.00057236619734e-07
-0.00372768662736932,-0.00122905976945518,5.59715574166147e-06,-7.02190742615658e-06
-0.00372936747845217,-0.00123749978765844,5.32751376090056e-06,-1.48826786622852e-05
-0.00373073838536372,-0.00124374635480323,3.34830012980176e-06,-2.20582062015091e-05
-0.00373338483174949,-0.0012482286243575,9.81209738124386e-08,-2.7135110571496e-05
-0.00373710416180516,-0.0012515903265232,-2.92336529479153e-06,-3.0465738333771e-05
-0.00373955987331628,-0.00125354535898837,-4.78447465917479e-06,-3.24597663516013e-05
-0.0037400367105029,-0.00125308044273141,-6.21578951016056e-06,-3.29424079381345e-05
-0.00374206326854606,-0.00125222213579548,-8.14894147588649e-06,-3.24733286644085e-05
-0.00374399445915189,-0.00125207908463949,-9.54938071220391e-06,-3.2353869104545e-05
-0.0037423255289987,-0.00125174529860886,-8.04561129830669e-06,-3.25829948888861e-05
-0.00373721145017215,-0.00125011213124467,-2.97866946556324e-06,-3.14114568051626e-05
-0.00373058341327807,-0.00124603517329902,3.20593255426224e-06,-2.78147025148058e-05
-0.00372707865995638,-0.00124088533168348,7.08558586495734e-06,-2.29442502272448e-05
-0.00372729323669036,-0.00123580701564592,7.19496114110579e-06,-1.80068490559351e-05
-0.00372905753428087,-0.00122897632294752,4.69151167973039e-06,-1.20335911954968e-05
-0.00373191855740062,-0.00122017867685429,1.82803291361722e-06,-3.28860192554199e-06
-0.0037340047200921,-0.00120890147739062,3.79609191535436e-08,7.8936894327924e-06
-0.00373487494795769,-0.00119675405006135,-9.71311513285543e-07,1.91980686491331e-05
-0.00373610280371325,-0.00118739612027384,-2.32667314091585e-06,2.88247362432831e-05
-0.00373711608273483,-0.00117945678111653,-3.91848186894366e-06,3.64517381691765e-05
-0.00373755715713246,-0.00117344863256506,-3.87108663445133e-06,4.18837726541717e-05
-0.00373477958052037,-0.00117132670708458,-1.09465719497196e-06,4.42962692851054e-05
-0.00373072646443405,-0.00117232806517649,2.35798822046646e-06,4.33780119748172e-05
-0.00372945092495983,-0.00117452151623496,3.35723814720016e-06,4.03290073456059e-05
-0.00373145364114366,-0.00117846734395429,2.00984010403378e-06,3.70298042663575e-05
-0.00373116753883168,-0.00118129260428504,1.66548923377411e-06,3.43927975458667e-05
-0.00372852109244591,-0.00118339068790619,3.99142331164119e-06,3.17424752768884e-05
-0.00372654221812142,-0.00118771798537481,6.30646334075263e-06,2.77603963610249e-05
-0.00372703097623771,-0.00119413144553491,5.17697392119662e-06,2.20975013630083e-05
-0.00373172782252597,-0.00119973428247775,7.17545917702731e-07,1.60363616784792e-05
-0.00373693726878984,-0.00120483644037464,-4.51533806887191e-06,1.12204888716501e-05
-0.0037408354127905,-0.00120910413319493,-9.25276175859128e-06,7.78124072360671e-06
-0.00374556802186775,-0.00121265657023529,-1.37210672627427e-05,4.49662301964051e-06
-0.00374935887750142,-0.00121600635147133,-1.71331373963344e-05,9.99873073768917e-07
-0.00374920390541577,-0.0012189985048174,-1.7833364709419e-05,-1.35478720362254e-06
-0.00374721311016161,-0.00122100122100122,-1.61887139135429e-05,-1.67867016968507e-06
-0.00374679587762331,-0.00121953494665235,-1.51059952546185e-05,-1.462826707071e-06
-0.00374825023104252,-0.00122188336979648,-1.68348639292415e-05,-2.71667302202949e-06
-0.00375111125416227,-0.00122563846264115,-2.05097166570677e-05,-4.62797556442295e-06
-0.00375424645866432,-0.00122413642550328,-2.32733541946053e-05,-3.82185725751291e-06
-0.00375374577961837,-0.00121911771411405,-2.26761484276938e-05,1.68281724984576e-06
-0.00374848864963583,-0.00121262080744629,-1.77619144040733e-05,9.92524059582421e-06
-0.00373967908261294,-0.00120620734728619,-9.28463619696192e-06,1.67777241658633e-05
-0.00373035691561442,-0.00120364434740808,3.4634492016731e-07,1.93952940489032e-05
-0.00372204802763748,-0.00120618350542685,8.33603452082348e-06,1.77219952325482e-05
-0.00371719620926358,-0.00121195323538501,1.35978514555228e-05,1.36539883166984e-05
-0.0037126781769203,-0.0012162566909943,1.71557615648948e-05,9.32361583851867e-06
-0.00371043704214317,-0.00122017867685429,2.01292418892901e-05,5.62529443728777e-06
-0.00370854161432633,-0.00122551925334449,2.20349016655624e-05,2.00276079799594e-06
-0.00370837472131102,-0.00123026378335141,2.16396698424133e-05,-2.06263071034193e-06
-0.00371123574443076,-0.00123384006225109,1.89565963092605e-05,-5.66780189523536e-06
-0.0037150385209941,-0.00123676069001917,1.56768459938806e-05,-7.5730674106942e-06
-0.00371662400463963,-0.001238763406203,1.35971940612645e-05,-8.55590152693654e-06
-0.0037172915767009,-0.00124176748047873,1.28855681236432e-05,-1.11244264983224e-05
-0.0037184717487378,-0.00124733455463258,1.21172125011489e-05,-1.61251872497888e-05
-0.00372048638585129,-0.00125213868928782,1.03346205493126e-05,-2.08777080859434e-05
-0.00372132085092788,-0.00125478513567359,8.99339272352888e-06,-2.19457974439951e-05
-0.00371955655333737,-0.00125240094974047,1.09402920055227e-05,-1.91657615940506e-05
-0.00371440671172182,-0.00124789483832686,1.68510699606709e-05,-1.57254002813338e-05
-0.00370739720507843,-0.00124866969875513,2.36405579993523e-05,-1.45136633457214e-05
-0.00370298646110216,-0.00125014789403366,2.75246234718732e-05,-1.55849931263172e-05
-0.00370354674479644,-0.00125103004282892,2.77506552624386e-05,-1.73905215422872e-05
-0.00370640776791619,-0.00125383146130034,2.56567850697146e-05,-1.94139423499457e-05
-0.00371005557239387,-0.00125768192158234,2.09488430846283e-05,-2.26708264472783e-05
-0.0037195446324077,-0.00126253373995624,1.17414460018677e-05,-2.76584477912881e-05
-0.00373389743172511,-0.00126703985136985,-1.3105328320074e-06,-3.25060948330639e-05
-0.00374584220325006,-0.00126849420478905,-1.3849686391433e-05,-3.40178392846518e-05
-0.00375428222145332,-0.0012660861769966,-2.24306050680684e-05,-3.10395578756382e-05
-0.00376058839324644,-0.00126096017724038,-2.8085047039687e-05,-2.62762856536872e-05
-0.00376596473252563,-0.00125702627045073,-3.31191117446486e-05,-2.36760341876559e-05
-0.00376908801609802,-0.0012580753122613,-3.6188845834734e-05,-2.39036033848273e-05
-0.00376650117436058,-0.00125755079135601,-3.36813907865832e-05,-2.36282787973096e-05
-0.00375846646776595,-0.00125205524278016,-2.54728576663521e-05,-1.98976800192251e-05
-0.0037499906867737,-0.00124653585234498,-1.61404084548647e-05,-1.38512255605893e-05
-0.00374345801731694,-0.00124020583869254,-9.69587358037927e-06,-8.56481950255115e-06
-0.00373878501288801,-0.00123496062963966,-5.52375724967803e-06,-3.99024299999942e-06
-0.00373474381773137,-0.00122661597887373,-7.67503211880967e-07,3.67330741866337e-06
-0.00372977279006081,-0.00121217973304866,5.13142541338795e-06,1.68306350187805e-05
-0.00372400306010264,-0.0011961818454374,9.89385581244675e-06,3.23144597232729e-05
-0.00372298978108107,-0.00118381984137415,1.1227876711268e-05,4.38683948712646e-05
-0.00372648261347309,-0.00117720372540973,8.64247623888991e-06,4.84257744797083e-05
-0.00373144172021399,-0.00117677457194177,3.27812358496574e-06,4.88152912446817e-05
-0.00373753331527312,-0.00117384202324402,-2.41214106818929e-06,5.02910430464664e-05
-0.00374004863143257,-0.00116642720499201,-5.25702073724657e-06,5.53842132034025e-05
-0.00373855851522437,-0.00115995414018358,-3.51831395042712e-06,6.24137261851032e-05
-0.003735113366551,-0.00115171677778463,1.08256808636517e-06,6.79410237955698e-05
-0.00373021386445843,-0.00114860541514191,4.64051636413385e-06,6.9498614045025e-05
-0.00373021386445843,-0.00115175254057363,4.84916327948278e-06,6.6067199068856e-05
-0.00373348019918681,-0.00115826136817106,2.72519832603255e-06,5.71766225593073e-05
-0.0037355663618783,-0.00117152936288889,4.02299699027477e-07,4.25804870178816e-05
-0.00373618625022091,-0.00118949420389498,-1.54053893413957e-06,2.28251796406312e-05
-0.00373994134306558,-0.0012117148167917,-3.7143200563321e-06,-2.79324278624542e-07
-0.00374181292902308,-0.00123320825297882,-5.86393460198603e-06,-2.38796734259047e-05
-0.00374218247784272,-0.00125256784275579,-6.65170643187115e-06,-4.49455929959709e-05
-0.00374106191045415,-0.00126777894900912,-5.61050867139068e-06,-6.1653340622631e-05
-0.00374023936630722,-0.00127942569729243,-4.36657232083949e-06,-7.44972562214615e-05
-0.00374122880346947,-0.00128828294803399,-5.3745190619725e-06,-8.54782775298666e-05
-0.00374486468701748,-0.0012964607057846,-9.51947411833841e-06,-9.51925886245809e-05
-0.00375039599838233,-0.00130064495209723,-1.49028399674252e-05,-0.000100955464760959
-0.00375337623079873,-0.0012976051150325,-1.78501571325228e-05,-9.91263763080788e-05
-0.00375114701695126,-0.00128622062720183,-1.56215460952242e-05,-8.96256049200417e-05
-0.00374407790565955,-0.00127186782788443,-8.94261198628805e-06,-7.68531370983852e-05
-0.00373686574321185,-0.00125869520060391,-1.81290917615473e-06,-6.52924371570569e-05
-0.00373317025501551,-0.00124806173134218,2.0138045331497e-06,-5.5228509124983e-05
-0.00373264573411022,-0.00123447187152337,2.5532526213979e-06,-4.38574273089465e-05
-0.00373135827370633,-0.00121864087692743,2.91736326981098e-06,-2.95070040081009e-05
-0.00372983239470913,-0.00120111711031897,5.11964428807376e-06,-1.28760723819933e-05
-0.00372686408322239,-0.00118230588330662,7.87094679154609e-06,5.38835323200252e-06
-0.00372474215774191,-0.00115975148437926,9.27932307461372e-06,2.56034465917199e-05
-0.00372406266475097,-0.00113772160635719,1.02302117870314e-05,4.62461405800513e-05
-0.00372122548349056,-0.00112274891869717,1.30676991152102e-05,6.21553315736495e-05
-0.00371648095348364,-0.00111471421210254,1.73513864431086e-05,6.80569407004751e-05
-0.00371414445126918,-0.00111662156084904,1.93278695730188e-05,6.40214188990479e-05
-0.00371743462785689,-0.00112611062086288,1.650706755077e-05,5.59135733084437e-05
-0.00372239373459779,-0.00113095051830712,1.09794979677593e-05,4.99728815323372e-05
-0.00372645877161376,-0.00113105780667411,6.7213514176106e-06,4.78502598285646e-05
-0.00372810385990762,-0.00113220221592201,4.79833243739636e-06,4.70882217238097e-05
-0.00373036883654409,-0.00113475329487045,3.06190448765074e-06,4.49730632853703e-05
-0.00373245499923557,-0.00113732821567823,3.67852005287466e-08,4.07971272317163e-05
-0.00373545907351131,-0.00114251382008277,-2.94630210261766e-06,3.52784983673924e-05
-0.00373650811532188,-0.00114953524765582,-3.84501123354462e-06,2.94315564748108e-05
-0.00373497031539502,-0.00115355260095314,-2.54028071672508e-06,2.4168851950253e-05
-0.00373243115737624,-0.00115823752631173,-6.0289106403501e-07,1.99132529871368e-05
-0.00373189471554129,-0.00116209990752339,5.58164005273802e-07,1.6256517143389e-05
-0.00373100064581636,-0.00116565234456374,5.60149180878654e-07,1.27180302433167e-05
-0.00373203776669727,-0.00116903788858878,-2.17681064599843e-07,9.91663327775267e-06
-0.00373305104571885,-0.00117026574434434,-1.03122748572704e-06,8.98915690095383e-06
-0.00373241923644657,-0.00116990811645437,-1.31393263074034e-06,9.56703841289198e-06
-0.00373257420853223,-0.00117071873967163,-1.29164059230796e-06,9.55318362193283e-06
-0.00373344443639782,-0.00117347247442439,-1.68630969655442e-06,7.70535046233713e-06
-0.00373376630149879,-0.00117613084173982,-2.58679730937412e-06,5.39733689135944e-06
-0.00373370669685046,-0.00117751366958104,-3.21041413947126e-06,4.66651062734784e-06
-0.00373432658519307,-0.00117809779513465,-3.0472382854352e-06,5.27459243052984e-06
-0.00373389743172511,-0.00117952830669453,-2.52923050287945e-06,5.09915498003528e-06
-0.00373249076202457,-0.00118192441355732,-2.2322065676106e-06,3.06183537369281e-06
-0.00373287223177387,-0.00118552453431633,-2.19865843666958e-06,2.33294451288634e-07
-0.00373322985966384,-0.00118997104108161,-2.40997475832271e-06,-1.89903064493824e-06
-0.00373384974800645,-0.00119142539450082,-2.95756232794163e-06,-2.88331592981426e-06
-0.00373326562245283,-0.00119222409678841,-3.20730453362854e-06,-2.89800564643159e-06
-0.00373220465971259,-0.00119296319442768,-1.90477634235785e-06,-2.23339119447947e-06
-0.00372967742262348,-0.00119448907342488,1.05848582165465e-06,-1.5337412531897e-06
-0.00372635148324677,-0.00119479901759619,4.05028681654333e-06,-1.42515508037444e-06
-0.00372399113917298,-0.00119569308732111,5.80739922636361e-06,-1.61388499522809e-06
-0.0037233593299007,-0.00119827992905855,6.89210195177726e-06,-1.54930222782589e-06
-0.00372262023226143,-0.00119993693828207,7.75206714073941e-06,-2.22043852930244e-06
-0.00372320435781505,-0.00120402581715738,6.80130007790336e-06,-5.6634640965334e-06
-0.00372722171111236,-0.001212167812119,2.65219937805782e-06,-1.18626301060794e-05
-0.00373239539458724,-0.00121926076527004,-2.61829636884727e-06,-1.77040787159719e-05
-0.00373537562700365,-0.00122327811856735,-5.16758846012891e-06,-2.03990127725497e-05
-0.00373417161310742,-0.00122528083475118,-4.39570552949792e-06,-2.08465742171172e-05
-0.00373334906896049,-0.00122709281606035,-3.65591666401943e-06,-2.20117437242053e-05
-0.00373469613401271,-0.00123132474609165,-5.35989590456413e-06,-2.46881333290298e-05
-0.00373799823153008,-0.00123553283426361,-7.87262776176845e-06,-2.66635318272894e-05
-0.00373815320361574,-0.00123466260639802,-8.51828869855057e-06,-2.59823559268833e-05
-0.00373640082695489,-0.00123363740644678,-7.45374878173664e-06,-2.33683290861718e-05
-0.00373606704092425,-0.00123283870415918,-6.58634897379088e-06,-2.08831683359671e-05
-0.00373597167348693,-0.00123215921116824,-6.06805223962525e-06,-1.92829398663059e-05
-0.00373297952014086,-0.00123133666702131,-4.17302212693484e-06,-1.75532630848437e-05
-0.00372927211101485,-0.00122909553224418,-3.8272543682441e-07,-1.48480091621697e-05
-0.0037264468506841,-0.00122901208573652,3.18554247143237e-06,-1.23564285777684e-05
-0.00372473023681225,-0.00122916705782217,3.82756162592998e-06,-1.26443143419742e-05
-0.00372805617618896,-0.00123401887619608,9.50921670495815e-07,-1.64223956981804e-05
-0.00373220465971259,-0.00123871572248433,-3.39511246969659e-06,-2.01317136415109e-05
-0.00373463652936438,-0.00123738057836178,-6.26320862954889e-06,-1.82559532010618e-05
-0.00373470805494237,-0.00122956044850114,-6.14377496387935e-06,-9.07648185669427e-06
-0.00373268149689922,-0.00121788985835849,-3.786062137891e-06,2.83430585794514e-06
-0.0037283541994306,-0.00120962865410022,-6.85979305398921e-07,1.10567595148607e-05
-0.00372519515306921,-0.0012090445285466,2.72197298868897e-06,1.34490118377307e-05
-0.0037222864462308,-0.00121032006802082,6.53381276434239e-06,1.25611089438789e-05
-0.00371785186039518,-0.00121121413774575,9.6503925329226e-06,1.11193568379095e-05
-0.00371663592556929,-0.00121364600739753,1.04229149365622e-05,9.5445234566677e-06
-0.00371892474406509,-0.00121682889561825,9.23473048900102e-06,7.7733505304878e-06
-0.00371917508358807,-0.00121700770956324,8.43003466049709e-06,6.69493171520933e-06
-0.00371775649295786,-0.00121775872813217,8.84903880719661e-06,6.51977264213709e-06
-0.00371854327431579,-0.0012189627420284,8.42363121762137e-06,5.69410053505033e-06
-0.00372202418577815,-0.00122202642095246,5.56266917870553e-06,3.10294720768924e-06
-0.00372420571590696,-0.00122485168128322,2.05247328404345e-06,9.27853193628159e-08
-0.00372554086002951,-0.00122641332306941,6.63699012381095e-07,-1.40662249731888e-06
-0.00372545741352185,-0.00122727163000534,1.31411043088266e-06,-1.92634999341513e-06
-0.00372444413450027,-0.00122900016480685,1.81564966200061e-06,-3.76217942553794e-06
-0.00372406266475097,-0.00123317249018982,1.40749262949786e-06,-7.50082510090391e-06
-0.00372483752517924,-0.00123621232725455,1.16029299598669e-06,-1.10282935443977e-05
-0.00372438452985194,-0.00123730905278379,1.43374508684535e-06,-1.22948540356496e-05
-0.00372388385080599,-0.00123739249929145,1.3082326022328e-06,-1.15655071351705e-05
-0.00372483752517924,-0.00123550899240428,3.54811721289096e-07,-1.02491619245396e-05
-0.00372617266930179,-0.00123366124830611,-1.2295470521979e-06,-8.70890934778541e-06
-0.00372936747845217,-0.00123126514144332,-4.04220619314553e-06,-6.30255404855237e-06
-0.0037328245480552,-0.00122833259274558,-8.46904682669014e-06,-2.83541675666457e-06
-0.00373609088278358,-0.001223468853442,-1.19893479066938e-05,1.40997526057835e-06
-0.00373536370607398,-0.00121730573280488,-1.03473195809501e-05,7.01496664018082e-06
-0.00372700713437838,-0.00120983130990453,-2.87858026524901e-06,1.53316874460849e-05
-0.00371804259526983,-0.00119835145463654,5.26610410121603e-06,2.61110424008013e-05
-0.00371631406046832,-0.00118865973881839,7.9185288271628e-06,3.58971822740708e-05
-0.00372023604632831,-0.00118403441810813,3.8624848726551e-06,4.01160141861187e-05
-0.00372605346000513,-0.00118728883190684,-3.15260648448707e-06,3.72062260950818e-05
-0.00373259805039156,-0.00119382150136361,-9.11685122710651e-06,3.01010611048673e-05
-0.00373636506416589,-0.00120098598009264,-1.28369355097814e-05,2.32466188507443e-05
-0.00373795054781142,-0.00120542056592825,-1.49726280690356e-05,1.86521741598466e-05
-0.00373893998497367,-0.00120819814254034,-1.59208469416094e-05,1.53042790052656e-05
-0.00373811744082674,-0.00121220357490799,-1.53510336056604e-05,1.17576714910332e-05
-0.00373609088278358,-0.00121597058868233,-1.31514058561457e-05,8.1144224045058e-06
-0.00373278878526621,-0.00121814019788147,-1.00652518670102e-05,5.36139321312734e-06
-0.00372967742262348,-0.00121947534200402,-7.06489584789669e-06,3.84255378231248e-06
-0.00372657798091042,-0.00122098930007156,-4.27323867735084e-06,3.06545010564328e-06
-0.00372395537638398,-0.00122144229539885,-1.19413945410738e-06,2.48210629154158e-06
-0.00372073672537426,-0.00122123963959453,1.71708238143904e-06,1.78105582692842e-06
-0.00371937773939238,-0.00122345693251234,2.77129813845022e-06,6.34750614393714e-07
-0.00372102282768624,-0.00122473247198656,1.40995837078934e-06,-1.26599685610336e-06
-0.00372253678575377,-0.00122810609508193,-1.19821066364094e-08,-3.94161453917587e-06
-0.00372056983235895,-0.00123100288099068,1.49472492388435e-06,-7.17472495907042e-06
-0.00371662400463963,-0.00123388774596976,5.79491821014952e-06,-1.06520335883412e-05
-0.00371248744204565,-0.00123839385738336,9.93120575825694e-06,-1.38010542613913e-05
-0.00371001980960487,-0.00124051578286384,1.21037074951576e-05,-1.59164053442146e-05
-0.00370924494917661,-0.00124049194100451,1.33070853179646e-05,-1.7031182422284e-05
-0.00370764754460141,-0.00124256618276633,1.47062740205466e-05,-1.82889037459467e-05
-0.0037066819492985,-0.00124589212214304,1.57086690151596e-05,-2.05443497524226e-05
-0.00370690844696214,-0.00124717958254692,1.56815793376491e-05,-2.27182451063153e-05
-0.00370688460510281,-0.00124727494998425,1.54730087112078e-05,-2.27231155474682e-05
-0.00370727799578178,-0.00124534375937842,1.56500395654022e-05,-2.03851537866056e-05
-0.00370755217716409,-0.0012440682199042,1.49362768841222e-05,-1.82006317228073e-05
-0.00371043704214317,-0.00124348409435058,1.22855388224579e-05,-1.81727410725289e-05
-0.00371379874430887,-0.00124417550827119,9.19910228253137e-06,-1.87736985159625e-05
-0.00371501467913477,-0.00124218471301703,7.87034397512629e-06,-1.65394834075342e-05
-0.00371522925586875,-0.00123738057836178,7.87646523975313e-06,-1.04969385052517e-05
-0.003716111404664,-0.00122978694616478,6.92555454227461e-06,-3.51805499040242e-06
-0.00371855519524546,-0.00122495896965021,4.50037694154325e-06,1.09212701524796e-06
-0.00372129700906855,-0.00122374303482431,2.50163175770109e-06,3.07465931895993e-06
-0.00372116587884223,-0.00122336156507501,2.0786662419931e-06,4.55384646934073e-06
-0.00372120164163122,-0.00122039325358827,1.88336208504404e-06,6.96329052102767e-06
-0.00372384808801699,-0.00121657855609528,2.32808802775555e-07,9.82679623917026e-06
-0.00372650645533243,-0.0012166381607436,-2.53778661132769e-06,1.21227039812656e-05
-0.00372817538548561,-0.0012151838073244,-4.90494113290858e-06,1.35474556643534e-05
-0.00373034499468476,-0.00121363408646787,-6.38353634495625e-06,1.41984680506062e-05
-0.00373221658064226,-0.00121409900272483,-7.90578959934847e-06,1.39176493141099e-05
-0.00373460076657538,-0.0012174368630312,-1.03325251508635e-05,1.25139496539293e-05
-0.00373678229670419,-0.00121929652805904,-1.32362733130225e-05,1.02766262424917e-05
-0.00373954795238661,-0.00122081048612657,-1.51274178215716e-05,7.800154882973e-06
-0.00373970292447227,-0.00122413642550328,-1.48130992412166e-05,5.34872396753339e-06
-0.00373659156182954,-0.00122864253691688,-1.27910397630743e-05,2.70392347387834e-06
-0.00373568557117495,-0.00123016841591408,-1.11526016805141e-05,-1.91523649697461e-07
-0.00373605511999459,-0.0012318969507156,-1.15165780748677e-05,-2.55526485356016e-06
-0.00373767636642911,-0.00123509175986598,-1.3046089688963e-05,-3.10923094955584e-06
-0.00373765252456978,-0.00123276717858119,-1.31364121518494e-05,-1.43775261138975e-06
-0.0037347318968017,-0.00122911937410351,-1.01837332252338e-05,1.14684051551309e-06
-0.00372948668774883,-0.00122948892292314,-5.15159632451481e-06,2.54325071828265e-06
-0.00372558854374817,-0.00123028762521074,-4.40605348966625e-07,1.70980138877194e-06
-0.00372241757645712,-0.00123263604835487,2.03779833026055e-06,-7.13406583633772e-07
-0.00372253678575377,-0.00123506791800665,1.64891210428409e-06,-3.36091714377471e-06
-0.00372573159490416,-0.0012379289411264,-9.24361873593474e-07,-4.96031029409323e-06
-0.00372880719475789,-0.00123693950396416,-3.68396761876275e-06,-4.27887424763516e-06
-0.00372780583666598,-0.00123273141579219,-4.15452963082831e-06,-4.63933250209579e-07
-0.00372620843209078,-0.00122741468116132,-1.3701936329353e-06,5.88395405287057e-06
-0.00372163079509919,-0.00122057206753326,2.95729476956557e-06,1.27564226239885e-05
-0.0037184002231598,-0.00121451623526312,5.92569649332442e-06,1.85850648591499e-05
-0.00371782801853585,-0.0012098074680452,6.16215705131606e-06,2.34258368250839e-05
-0.00371993802308667,-0.00120618350542685,4.60574414363e-06,2.7653500755287e-05
-0.0037215235067322,-0.00120362050554875,2.71639756502987e-06,3.03494395135815e-05
-0.00372296593922174,-0.00120319135208078,7.41713869181989e-07,3.01554514058425e-05
-0.00372612498558313,-0.00120668418447281,-1.85025254335596e-06,2.72256653358189e-05
-0.00372875951103923,-0.0012113691098314,-4.87716579675328e-06,2.30293719493183e-05
-0.00373085759466038,-0.00121570832822969,-7.17205935794099e-06,1.83569674865834e-05
-0.00373141787835466,-0.00122114427215721,-7.67823177127498e-06,1.27264279970521e-05
-0.0037298085528498,-0.00122823722530825,-6.1933792844728e-06,5.79735161823353e-06
-0.00372657798091042,-0.0012367845318785,-3.10090563895078e-06,-1.79509342284224e-06
-0.00372271559969876,-0.0012432337548276,8.65416051259274e-07,-9.2485570510984e-06
-0.00371830485572248,-0.00125002868473701,4.43612055228566e-06,-1.62078368796203e-05
-0.00371735118134923,-0.00125713355881772,6.32720937247124e-06,-2.2258263245008e-05
-0.00371654055813197,-0.00126117475397436,6.61723452849972e-06,-2.67834391231804e-05
-0.00371544383260273,-0.00126410730267211,6.94943376594574e-06,-2.98622114945336e-05
-0.0037145855256668,-0.00126656301418322,8.52971301085309e-06,-3.26121268588451e-05
-0.00371260665134231,-0.00127080686514418,1.04183752328327e-05,-3.60834297132277e-05
-0.00371171258161739,-0.00127463348356685,1.07547433471751e-05,-4.01726842341426e-05
-0.0037130596466696,-0.00127774484620958,9.18154412352272e-06,-4.38899604876983e-05
-0.00371605180001568,-0.001280510501892,6.7678262707483e-06,-4.63069406874376e-05
-0.00371842406501913,-0.0012816906739289,3.92264956708678e-06,-4.70896691383696e-05
-0.00372192881834083,-0.00128027208329869,3.28541244756992e-07,-4.64945539873542e-05
-0.00372486136703857,-0.00127918727869912,-2.71857400605301e-06,-4.489966049101e-05
-0.00372409842753997,-0.00127595670675973,-2.21458389513943e-06,-4.20042395149164e-05
-0.00371993802308667,-0.00127067573491786,2.63655594735505e-06,-3.67593937003227e-05
-0.00371421597684717,-0.00126278407947922,7.88803255706962e-06,-2.87342637215959e-05
-0.00371263049320164,-0.00125341422876204,8.45949549388944e-06,-1.91911729134054e-05
-0.00371845982780813,-0.00124286420600797,3.85495443469897e-06,-9.75380874823345e-06
-0.00372419379497729,-0.00123442418780471,-1.64880668887437e-06,-1.74114646081383e-07
-0.00372566006932617,-0.00122276551859173,-4.33497451938746e-06,1.1218994080619e-05
-0.00372533820422519,-0.00120878226809396,-4.40567943835727e-06,2.46036087571723e-05
-0.00372662566462908,-0.00119609839892974,-3.59576767753088e-06,3.75742826989593e-05
-0.00372358582756435,-0.00118615634358861,-1.82857734166212e-06,4.75698784981623e-05
-0.00371917508358807,-0.00117969519970984,1.91906402442044e-06,5.41811037776075e-05
-0.0037149669954161,-0.0011753082975929,6.59503204894493e-06,5.82597652655543e-05
-0.00371361993036389,-0.00117323405583108,9.02526968151207e-06,5.98989779407412e-05
-0.0037150385209941,-0.0011756540045532,7.04301506155021e-06,5.84709223394714e-05
-0.00371890090220576,-0.00117982632993617,1.56061404299519e-06,5.39654862876022e-05
-0.00372706673902671,-0.00118600137150296,-4.46106785956564e-06,4.71867440813058e-05
-0.00373069070164506,-0.00119457251993254,-8.11162329408413e-06,3.9081983011095e-05
-0.00372922442729619,-0.00120331056137744,-7.74019051032345e-06,3.07727453945325e-05
-0.00372533820422519,-0.00121009357035718,-3.56920780344535e-06,2.36453460241016e-05
-0.00372008107424266,-0.00121500499337941,2.12445269042432e-06,1.82693232332237e-05
-0.00371688626509227,-0.00122063167218159,6.31343701089541e-06,1.36108704863623e-05
-0.00371400140011319,-0.00122547156962583,7.61715153371796e-06,8.47813141991837e-06
-0.00371501467913477,-0.00123025186242174,7.0439809664953e-06,3.41853728581851e-06
-0.00371743462785689,-0.00123455531803103,5.8040671084736e-06,-2.17368937038186e-07
-0.00371989033936801,-0.0012368202946675,3.09425771657724e-06,-3.02652575032801e-06
-0.00372499249726489,-0.00124193437349405,-2.75930454633316e-06,-7.60432414388217e-06
-0.00373420737589642,-0.00124955184755038,-1.11105293042473e-05,-1.50555080142671e-05
-0.00374170564065609,-0.00125684745650574,-1.83206992847626e-05,-2.28710689022379e-05
-0.00374456666377584,-0.00126221187485527,-2.09848200137696e-05,-2.77251075961076e-05
-0.00374259971038101,-0.00126439340498408,-1.91677598928677e-05,-2.96422703665845e-05
-0.00373889230125501,-0.00126614578164493,-1.57808922270779e-05,-3.15717638974034e-05
-0.00373806975710808,-0.00126911409313167,-1.32547554104362e-05,-3.46907004663355e-05
-0.00373590014790893,-0.00127087839072218,-1.16599659496539e-05,-3.60237477781224e-05
-0.0037336590131318,-0.0012671590606665,-9.88102294156682e-06,-3.20386042196689e-05
-0.0037324430783059,-0.00125826604713595,-7.52298680738526e-06,-2.35011017297042e-05
-0.00373040459933308,-0.00124948032197239,-5.06466963117811e-06,-1.48975580542212e-05
-0.00372771046922865,-0.0012447953966138,-2.72916100516409e-06,-9.22451209209402e-06
-0.00372563622746683,-0.00124031312705953,-1.65434132540909e-07,-5.24555001910863e-06
-0.00372310899037772,-0.00123499639242866,2.60581465860639e-06,-3.34630795394551e-07
-0.00372172616253651,-0.00122948892292314,4.71199358199021e-06,5.98406087761472e-06
-0.0037211062741939,-0.00122268207208407,5.50377261172178e-06,1.25716854978716e-05
-0.00372056983235895,-0.00121626861192397,5.61190938604945e-06,1.88471034407972e-05
-0.00372154734859153,-0.00121083266799645,5.97410592746896e-06,2.41786330107918e-05
-0.00372201226484849,-0.0012090445285466,5.99488440405491e-06,2.62277357979378e-05
-0.0037229778601514,-0.00121269233302428,4.06358237499737e-06,2.27734437714229e-05
-0.00372829459478227,-0.00121942765828536,4.00090099865686e-07,1.53150887952154e-05
-0.00373120330162068,-0.00122668750445172,-2.09813576733296e-06,8.36045463037949e-06
-0.00372939132031151,-0.00123095519727201,-1.12623542008631e-06,4.4676674300741e-06
-0.00372803233432962,-0.00123252875998788,2.0478582460283e-06,2.13941106096087e-06
-0.00372535012515486,-0.00123559243891194,4.60689014901367e-06,-6.18595351406488e-07
-0.00372374079965,-0.00123789317833741,6.30133394387135e-06,-3.12453740501357e-06
-0.00372178576718484,-0.00123885877364032,9.15735683121978e-06,-4.0623401058833e-06
-0.00371794722783251,-0.00123938329454561,1.330660824596e-05,-4.7020887143912e-06
-0.00371592066978935,-0.00124223239673569,1.59663223066879e-05,-7.72905839969889e-06
-0.00371625445581999,-0.00124802596855318,1.54184161153842e-05,-1.36860618696912e-05
-0.00371929429288472,-0.00125490434497025,1.34379804700551e-05,-2.04452582100127e-05
-0.00372099898582691,-0.00126003034472646,1.23664831478357e-05,-2.56833148490167e-05
-0.00372086785560059,-0.00126255758181558,1.21353322588673e-05,-2.84001398152263e-05
-0.00372185729276283,-0.00126241453065959,1.20465506589322e-05,-2.86792757890216e-05
-0.00372140429743554,-0.00126186616789497,1.31413853261676e-05,-2.75827551081089e-05
-0.00371860287896412,-0.00126111514932604,1.60121597859712e-05,-2.68180162729335e-05
-0.00371707699996692,-0.0012603283679681,1.7954057414724e-05,-2.69778511215806e-05
-0.00371985457657901,-0.0012600541865858,1.56917588887813e-05,-2.64739091528153e-05
-0.0037256481483965,-0.00125828988899528,1.03169283718901e-05,-2.34985320941532e-05
-0.00372999928772445,-0.00125190027069451,6.26204675717202e-06,-1.83532779329497e-05
-0.00373100064581636,-0.00124531991751909,5.35018032942026e-06,-1.23647656641772e-05
-0.00373235963179824,-0.00124046809914518,4.87373221621367e-06,-5.51523562187447e-06
-0.00373504184097301,-0.00123142011352897,1.95182510840692e-06,2.62789403449604e-06
-0.0037405254686192,-0.00122317083020036,-3.12496209819972e-06,1.02855968417936e-05
-0.00374649785438167,-0.00122003562569831,-8.64135767580549e-06,1.45559969727066e-05
-0.00375160001227856,-0.00121932036991837,-1.37351477913067e-05,1.53571864755406e-05
-0.00375573657487253,-0.00121898658388773,-1.77595987141575e-05,1.5725711894049e-05
-0.00375801347243866,-0.00121715076071923,-1.98885749144818e-05,1.75225095306226e-05
-0.00375937245842054,-0.00121637590029096,-2.07662919033022e-05,1.91742635846939e-05
-0.00376049302580911,-0.00121707923514123,-2.2301781953105e-05,1.86028601807994e-05
-0.00376253150478193,-0.00121995217919065,-2.43888379660946e-05,1.61899623676714e-05
-0.00376290105360157,-0.0012227416767324,-2.41737388761993e-05,1.36179721400437e-05
-0.00375844262590662,-0.00122545964869616,-2.03083682074663e-05,1.17633055839466e-05
-0.00375350736102506,-0.00122649676957707,-1.53935262705384e-05,1.10980329915828e-05
-0.00374985955654738,-0.00122598416960145,-1.17017676173488e-05,1.22091290519438e-05
-0.0037442328777452,-0.00122483976035355,-6.82144898539322e-06,1.4189074422707e-05
-0.00373529218049599,-0.00122523315103252,2.89233406857465e-06,1.42823410519676e-05
-0.00372104666954557,-0.00122895248108819,1.57937070178544e-05,1.12774960141719e-05
-0.00371089003747046,-0.00123349435529079,2.57552984171364e-05,7.99573658873212e-06
-0.00370763562367175,-0.00123397119247742,2.9409717314756e-05,8.20523715597509e-06
-0.0037066819492985,-0.00123044259729639,2.90101513993551e-05,1.19261514963327e-05
-0.00370807669806938,-0.00122839219739391,2.75084234048574e-05,1.58789747578016e-05
-0.00371055625143982,-0.0012276650206843,2.43861734909163e-05,1.77454083847972e-05
-0.00371624253489033,-0.00122780807184029,1.81358858736479e-05,1.76063819385453e-05
-0.00372384808801699,-0.00123097903913135,9.9856871037583e-06,1.57210237546036e-05
-0.0037306072551374,-0.00123752362951777,2.43238053386836e-06,1.17190528331649e-05
-0.00373652003625155,-0.00124242313161034,-4.46210650763281e-06,6.38519833691453e-06
-0.00374456666377584,-0.00124834783365416,-1.27186357607537e-05,1.77774269046776e-06
-0.00375341199358773,-0.0012535334380587,-2.29365485799398e-05,-1.34258844112741e-06
-0.00376344941636618,-0.00125745542391869,-3.33268715361859e-05,-4.30568175403006e-06
-0.00377107881135218,-0.00126155622372366,-4.22140956502341e-05,-7.84662781800902e-06
-0.00377728961570797,-0.00126614578164493,-4.95959990843302e-05,-1.03968540342154e-05
-0.00378317855496279,-0.00126680143277654,-5.55871055909681e-05,-1.01907583756885e-05
-0.00378478788046765,-0.00126568086538797,-5.84234400730289e-05,-7.47775970343141e-06
-0.00377904199236882,-0.00126254566088591,-5.47934029556887e-05,-3.19699387426565e-06
-0.00376684688132089,-0.0012569666658024,-4.22529082249885e-05,3.16733098268901e-06
-0.00374528191955578,-0.0012496829777767,-2.20539429415641e-05,1.24305098537848e-05
-0.00372257254854277,-0.00124042041542652,-3.20235514379799e-07,2.30252710775521e-05
-0.00370529912145729,-0.00123223073674624,1.4815399054896e-05,3.15245162989292e-05
-0.00370063803795803,-0.00122940547641548,1.95319746254689e-05,3.6093742791972e-05
-0.00370173476348727,-0.00122932202990782,1.7928933340661e-05,3.78777761830678e-05
-0.00369998238682642,-0.00122917897875184,1.73708367028445e-05,3.83851696430715e-05
-0.00369585774516211,-0.00123208768559025,2.0028029152534e-05,3.68128846541213e-05
-0.00369488022892953,-0.00123875148527333,2.15562764258546e-05,3.11155431483266e-05
-0.00369648955443439,-0.00125033862890831,1.88616697694597e-05,2.11323693311416e-05
-0.00369735978229998,-0.00126259334460457,1.54399140555099e-05,9.37959517506206e-06
-0.00369629881955974,-0.00127381093941992,1.58848909096876e-05,-1.40094970116818e-06
-0.00369460604754722,-0.00128475435285296,1.80108412279328e-05,-1.05354987567585e-05
-0.00369560740563914,-0.0012937904175395,1.56495000259987e-05,-1.88600805536799e-05
-0.00370022080541973,-0.00130159862647048,8.7869720760976e-06,-2.67427104131939e-05
-0.00370312951225814,-0.00130958564934645,5.29408075871676e-06,-3.35740185397633e-05
-0.00369929097290581,-0.00131611831880321,1.05449799391685e-05,-3.88278025703484e-05
-0.0036876084618335,-0.00131948002096892,1.97406823971606e-05,-4.26027937074227e-05
-0.00368158839235237,-0.0013226748301193,2.38420836122256e-05,-4.51708503568424e-05
-0.0036864640525856,-0.00132555969509838,2.0029588852615e-05,-4.6946085247846e-05
-0.00369428418244625,-0.00132745512291522,1.25538259189238e-05,-4.88267816886512e-05
-0.00369815848458758,-0.00132923134143539,5.54357424008755e-06,-5.12815261213512e-05
-0.00370465539125534,-0.00133302219706906,-5.17387392448166e-07,-5.28937821946646e-05
-0.00371081851189247,-0.00133018501580864,-6.06910252033961e-06,-5.13949284664289e-05
-0.00371414445126918,-0.0013257265881137,-1.08434925598043e-05,-4.68324034411382e-05
-0.00371882937662777,-0.00132170923481639,-1.55528561734571e-05,-4.20106002443718e-05
-0.00372426532055529,-0.00131819256056503,-2.14543046626682e-05,-3.85553736087004e-05
-0.00372952245053783,-0.00131299503523082,-2.69339498860596e-05,-3.42959137778298e-05
-0.00373044036212208,-0.00130531795652616,-2.74691721124308e-05,-2.65509006281404e-05
-0.00372334740897104,-0.00129618652440229,-2.06282344975174e-05,-1.65754125535231e-05
-0.0037108781165408,-0.00128659017602147,-9.0767429763315e-06,-8.03293876707884e-06
-0.00370007775426374,-0.00127927072520678,2.60803744381697e-06,-1.85247289893167e-06
-0.00369092248028055,-0.00127443082776253,1.21807176046261e-05,4.14366458569045e-06
-0.00368263743416294,-0.00126731403275216,1.97528399489812e-05,1.03924103829159e-05
-0.00367726109488375,-0.00126304633993187,2.58737925782204e-05,1.39418933602017e-05
-0.00367137215562893,-0.00126310594458019,3.13228280199225e-05,1.31198018903516e-05
-0.00366690180700432,-0.00126553781423198,3.7025898512588e-05,1.09201976299183e-05
-0.00366228840722373,-0.00126470334915539,4.21802747944462e-05,1.1381191368438e-05
-0.00365983269571261,-0.00126023300053078,4.36438932001325e-05,1.4474639859015e-05
-0.00366511366755448,-0.00125715740067705,3.91186444693289e-05,1.7095026292935e-05
-0.00367625973679183,-0.00125646598675644,3.02763001398478e-05,1.79498283636627e-05
-0.00368431828524579,-0.00125474937288459,2.11693934493935e-05,1.88700721675201e-05
-0.00369144700118583,-0.00125097043818059,1.40903559267684e-05,2.1599992390408e-05
-0.00369840882411056,-0.00124619014538468,8.36509601787109e-06,2.5566522495029e-05
-0.00370593093072956,-0.00124320991296827,2.74421507794001e-06,2.91328369767521e-05
-0.00371017478169052,-0.00123982436894324,-2.40705642849361e-06,3.13723038391593e-05
-0.00371332190712225,-0.00123789317833741,-5.322028197379e-06,3.20134048592212e-05
-0.00371414445126918,-0.00123926408524895,-4.659762106568e-06,3.06645753304659e-05
-0.00371292851644328,-0.00124331720133526,-1.50344661371758e-06,2.66788242178343e-05
-0.00370985291658955,-0.0012490273266451,3.66721824392684e-07,1.95533191821357e-05
-0.00371307156759927,-0.00125837333550294,-2.47129142652529e-06,9.73753033103641e-06
-0.00372194073927049,-0.0012683749954924,-9.13537724294247e-06,-4.65160119672776e-07
-0.00372880719475789,-0.00127499111145682,-1.51428749929518e-05,-7.41165305168014e-06
-0.00373121522255035,-0.00127559907886976,-1.79777648197465e-05,-8.6007196725554e-06
-0.0037328603108442,-0.00127068765584753,-1.98276163553415e-05,-4.64471018467057e-06
-0.00373871348731002,-0.00126461990264773,-2.29423215587338e-05,1.67777592569105e-06
-0.00374126456625846,-0.00125813491690963,-2.45860122710173e-05,7.81213464213303e-06
-0.00373471997587204,-0.00125275857763043,-2.00640876776463e-05,1.22839235721641e-05
-0.00372632764138744,-0.00125097043818059,-9.89147607013998e-06,1.41512934647101e-05
-0.00371887706034643,-0.00125176914046819,-2.66560406132112e-07,1.3136664743703e-05
-0.00371370337687155,-0.00125346191248071,3.85690515041874e-06,1.03472494808683e-05
-0.00371505044192376,-0.00125707395416939,2.86288535297936e-06,8.00243832852108e-06
-0.00371955655333737,-0.00125533349843821,-9.5844507988145e-07,8.41950332639365e-06
-0.00372692368787072,-0.00124934919174607,-7.13009480678453e-06,1.33729388401286e-05
-0.00373520873398833,-0.00124161250839308,-1.50834718779502e-05,2.31954102180003e-05
-0.00374063275698619,-0.00122790343927762,-2.15305334775241e-05,3.53394787108473e-05
-0.00374342225452794,-0.0012174726258202,-2.31766601990721e-05,4.49853198128596e-05
-0.003742706998748,-0.00121448047247413,-2.1011106396288e-05,4.9007631437406e-05
-0.00373940490123063,-0.00121420629109182,-1.90570043505453e-05,4.89546282158247e-05
-0.00373983405469859,-0.00121439702596647,-1.92247692201926e-05,4.84125417607647e-05
-0.00374203942668673,-0.00121463544455978,-1.9941915367802e-05,4.79004129870525e-05
-0.0037407996500015,-0.00121783025371017,-2.00177054712389e-05,4.4412466915114e-05
-0.00374283812897433,-0.00122756965324698,-2.13218304303146e-05,3.57729451394565e-05
-0.00374840520312817,-0.00123939521547527,-2.62269142532813e-05,2.30429633461275e-05
-0.00375458024469496,-0.00125305660087208,-3.35844840866087e-05,8.32509555782916e-06
-0.00375934861656121,-0.00127012737215324,-3.8787192427202e-05,-7.3217189254869e-06
-0.00376130364902637,-0.00128575571094487,-3.81039914153367e-05,-2.30016967414049e-05
-0.00375371001682937,-0.00129914291495937,-3.2499674154012e-05,-3.76032834262092e-05
-0.00374578259860173,-0.00131335266312079,-2.65414056987902e-05,-5.17867555933812e-05
-0.00374509118468113,-0.00133020885766797,-2.30405295524842e-05,-6.7959101397802e-05
-0.00374208711040539,-0.00134844788005637,-1.93519641771404e-05,-8.59378854631351e-05
-0.00372875951103923,-0.00136111982829093,-1.04237133346814e-05,-0.000100329828387371
-0.0037154199907434,-0.00136612661875049,4.5185489604567e-06,-0.000105142260247426
-0.0037017228425576,-0.00136312254447475,2.05239543793296e-05,-0.000100465192128198
-0.00368613026655497,-0.00135325201471162,3.30818666739459e-05,-9.18787642657351e-05
-0.00367524645777026,-0.00134265430823888,4.32014873053482e-05,-8.31848975504874e-05
-0.00366572163496742,-0.00133457191792559,5.41311960324769e-05,-7.25717637472402e-05
-0.00365384838902047,-0.00131877668611864,6.52756615033422e-05,-5.72234066652632e-05
-0.00364588520800383,-0.00129894025915505,7.28734001078274e-05,-3.93912679839536e-05
-0.00364224932445582,-0.00128545768770323,7.55345416513533e-05,-2.52080814557918e-05
-0.00364207051051083,-0.0012789488601058,7.50764668831152e-05,-1.77410860727402e-05
-0.0036466600684321,-0.00127354867896728,7.2012878529176e-05,-1.34649911743439e-05
-0.00365295431929554,-0.00126587160026262,6.44158757510856e-05,-6.64876152503206e-06
-0.00366340897461229,-0.00125581033562483,5.20941870471241e-05,4.09341208455481e-06
-0.00367870352737329,-0.00124500997334778,3.79439268888915e-05,1.52559685024161e-05
-0.00369321129877635,-0.00123556859705261,2.38257186177553e-05,2.38247518449904e-05
-0.00370637200512719,-0.00122733123465367,9.12580032419599e-06,3.07475076332745e-05
-0.00371934197660339,-0.00122251517906875,-4.7595077672378e-06,3.80106738029396e-05
-0.00372858069709424,-0.00121431357945881,-1.31680404466199e-05,4.4518794581449e-05
-0.00373034499468476,-0.00121058232847347,-1.50456648128436e-05,4.75693611074989e-05
-0.00373177550624463,-0.00121186978887736,-1.73294769542096e-05,4.75539867305029e-05
-0.00374112151510248,-0.00121085650985578,-2.75943781856315e-05,4.79486764145356e-05
-0.00375833533753963,-0.00120829350997767,-4.42912859912117e-05,5.00806315808353e-05
-0.00377302192288768,-0.00120792396115803,-5.87752397721469e-05,5.09620451255604e-05
-0.00377898238772049,-0.0012106419331218,-6.55835707855908e-05,4.79624307043781e-05
-0.00377885125749417,-0.00121561296079236,-6.61730143862577e-05,4.30746756533828e-05
-0.0037766220436467,-0.00121893890016907,-6.35498228007223e-05,3.9987068133618e-05
-0.00377147220203115,-0.00122019059778396,-5.8412255898351e-05,3.85205434224383e-05
-0.00376451037910642,-0.00122417218829228,-5.11407720786652e-05,3.48869396038148e-05
-0.00375465177027296,-0.0012322784204649,-4.32624698547729e-05,2.69303456108957e-05
-0.00374802373337887,-0.00124293573158596,-3.56798812879446e-05,1.65419581954406e-05
-0.00374141953834412,-0.00125253207996679,-2.83137480539369e-05,6.95501796176849e-06
-0.00373413585031842,-0.0012600541865858,-2.17538818056057e-05,-1.28052879714609e-08
-0.00372738860412768,-0.00126410730267211,-1.63352234838665e-05,-3.81372465787569e-06
-0.00372196458112982,-0.00126523979099034,-1.00388184660288e-05,-4.59739499462296e-06
-0.0037139298745352,-0.00126466758636639,-9.89702620624868e-07,-3.66374342129538e-06
-0.00370364211223376,-0.00126448877242141,8.67617543463042e-06,-2.88218491942307e-06
-0.00369381926618929,-0.00126492984681903,1.63032257556061e-05,-2.81051411873383e-06
-0.00368658326188226,-0.00126467950729606,2.56586672395601e-05,-2.45679453957093e-06
-0.00366984627663173,-0.00126476295380372,4.3648760566242e-05,-1.19023513879793e-06
-0.00364288113372809,-0.00126318939108785,6.81022684789881e-05,5.26845076494388e-07
-0.0036249878183,-0.00126118667490403,8.55529531061681e-05,2.65409834577849e-06
-0.00362732432051446,-0.00125982768892215,8.56426624468129e-05,6.08359623865835e-06
-0.00364012739897534,-0.00125479705660326,7.29071613084814e-05,1.0718741200307e-05
-0.0036507489473074,-0.00125174529860886,5.9532480664892e-05,1.44202474932228e-05
-0.00366116783983516,-0.00125286586599743,5.06769685313635e-05,1.49430295858759e-05
-0.00367041848125568,-0.00125634677745979,4.25813562158839e-05,1.19127689748254e-05
-0.00368036053659681,-0.00126237876787059,3.17201370615857e-05,5.96197469103308e-06
-0.00369271061973039,-0.00127314336735865,1.86714930185713e-05,-2.9953995821345e-06
-0.00370802901435071,-0.00128608949697551,3.85581479029934e-06,-1.52717053926966e-05
-0.00372694752973005,-0.00130068071488623,-1.37367693472657e-05,-2.95842517344053e-05
-0.00374395869636289,-0.00131505735606297,-3.22082396745721e-05,-4.27650778120085e-05
-0.00375802539336833,-0.00132509477884142,-4.60244876960776e-05,-5.14525959074616e-05
-0.00376409314656813,-0.00132765777871953,-5.15210211286953e-05,-5.40722391434465e-05
-0.00376259110943026,-0.00132663257876829,-5.00554227496854e-05,-5.16063315722341e-05
-0.00375690482597976,-0.00132193573248003,-4.46995234957527e-05,-4.62925066026117e-05
-0.00374975226818039,-0.00131567724440558,-3.68326410023048e-05,-3.8874258602553e-05
-0.0037393452965823,-0.00130468614725388,-2.7044094977419e-05,-2.76761979664878e-05
-0.00372906945521053,-0.00128983266889052,-1.65949649909875e-05,-1.18544814868187e-05
-0.00371997378587567,-0.0012744427486922,-6.64321482447152e-06,4.99652141074807e-06
-0.00371089003747046,-0.00126203306091029,2.04817572358122e-06,1.70617357961787e-05
-0.00370417855406872,-0.00125728853090337,8.08418306553647e-06,2.26655453864831e-05
-0.00370302222389115,-0.00125577457283584,1.03499627809317e-05,2.58326762678125e-05
-0.00370339177271079,-0.00125072009865761,1.03982136592677e-05,3.04139631606702e-05
-0.00370162747512027,-0.00124602325236936,1.13820776679157e-05,3.54382869808066e-05
-0.00369937441941347,-0.00124512918264444,1.37578868957479e-05,3.81817590426338e-05
-0.00369958899614745,-0.00124378211759222,1.43053604134483e-05,3.89670063369282e-05
-0.00370436928894337,-0.00124312646646061,1.01116706258991e-05,3.97083747943938e-05
-0.00371258280948298,-0.00124450929430183,1.1261406177992e-06,3.9616758817568e-05
-0.00372542165073285,-0.00124783523367853,-1.17745655346227e-05,3.61326756624627e-05
-0.00374341033359828,-0.00125472553102526,-2.79026642798139e-05,2.93180879909062e-05
-0.00375895522588225,-0.00126234300508159,-4.40951781605278e-05,2.16744361070971e-05
-0.0037686111789114,-0.00127098567908917,-5.39774387699753e-05,1.38419764946648e-05
-0.00376855157426307,-0.0012801647949317,-5.30987650265386e-05,4.18740411110818e-06
-0.00376043342116078,-0.00129120357580206,-4.37795706661354e-05,-6.92788362041276e-06
-0.00374841712405784,-0.00130025156141827,-3.28436012916533e-05,-1.62275099354907e-05
-0.00374242089643603,-0.00130678423087503,-2.56968036455525e-05,-2.22147448099519e-05
-0.00374181292902308,-0.00131154068181161,-2.41972472560598e-05,-2.7537696765646e-05
-0.00374532960327444,-0.00131757267222242,-2.81334657633441e-05,-3.46521411571875e-05
-0.00375340007265807,-0.00132519014627875,-3.54643301349235e-05,-4.16506014069141e-05
-0.00376142285832303,-0.00132830150892147,-4.17525769513686e-05,-4.47945833567625e-05
-0.00376089833741774,-0.00132495172768544,-4.24459885965895e-05,-4.35158700905144e-05
-0.00375579617952086,-0.00132285364406429,-3.59940674802675e-05,-4.0569164616955e-05
-0.00374397061729256,-0.00131958730933591,-2.27830914943402e-05,-3.8243924849921e-05
-0.00372322819967438,-0.00131706007224679,-1.94019807249228e-06,-3.65199208611275e-05
-0.00369417689407926,-0.001314663965384,2.72008300575826e-05,-3.44113485624152e-05
-0.00366278908626968,-0.0013101936167594,6.00146721888498e-05,-3.12791045005104e-05
-0.00363720677120726,-0.00130547292861181,8.68853734007787e-05,-2.68593080929849e-05
-0.00362327120442815,-0.001299548226568,0.000100898521906144,-2.13152583932677e-05
-0.00362166187892329,-0.00129197843623033,0.000102817123630403,-1.55538878484084e-05
-0.00362999460875956,-0.00128729351087174,9.63507438424899e-05,-1.1060863889719e-05
-0.00364594481265216,-0.00128448017147065,8.14635037549889e-05,-9.36233587648528e-06
-0.00367074034635665,-0.00128564842257788,5.64430247970644e-05,-1.11039090905238e-05
-0.00370293877738349,-0.00128808029222967,2.54110450819013e-05,-1.44274229763075e-05
-0.00373123906440968,-0.00128610141790518,-1.03268369439351e-06,-1.45661116124262e-05
-0.00374437592890119,-0.0012794018554331,-1.41950351936787e-05,-7.39739747205415e-06
-0.00374525807769645,-0.0012660504142076,-1.37082518642395e-05,5.55124270738005e-06
-0.00373654387811088,-0.00125057704750163,-4.67224864723847e-06,1.75746292955773e-05
-0.00372507594377255,-0.00124496228962912,8.56134452648691e-06,2.3811523883239e-05
-0.00371044896307283,-0.00124280460135964,2.37191807435333e-05,2.63270106732513e-05
-0.00369669221023871,-0.0012352586528813,3.81909533835445e-05,3.06056783064847e-05
-0.00368725083394354,-0.0012269378439747,4.85691319415882e-05,3.84342506581762e-05
-0.00368433020617546,-0.00121954686758202,5.25946862236387e-05,4.63223409282155e-05
-0.00368738196416986,-0.00121426589574014,5.02995171679015e-05,5.00183950516986e-05
-0.00369428418244625,-0.00121395595156884,4.39591460222266e-05,4.83256961332085e-05
-0.0037017586053466,-0.00122005946755764,3.76917387706063e-05,4.26841374083075e-05
-0.00370438120987303,-0.00122721202535701,3.49659871031529e-05,3.49120669699571e-05
-0.00370694420975114,-0.00123448379245304,3.4247940498402e-05,2.57384365670472e-05
-0.00371245167925666,-0.00124492652684012,2.89242895635139e-05,1.47691518634285e-05
-0.00372638724603577,-0.00125767000065267,1.47575445372857e-05,2.2540412474582e-06
-0.00374623559392903,-0.00126707561415885,-3.64374675327449e-06,-8.66477331989842e-06
-0.00376112483508139,-0.00127046115818388,-1.75333109878657e-05,-1.30947069251195e-05
-0.00376755021617116,-0.00126703985136985,-2.48829279144148e-05,-9.50767411323686e-06
-0.00377558492276579,-0.00125933893080586,-3.21915229877501e-05,-2.42794416293631e-06
-0.00378907941514727,-0.00125342614969171,-4.45167201564527e-05,2.23640561877225e-06
-0.00380246661916176,-0.00125169761489019,-5.83342005354468e-05,3.62473927137015e-06
-0.00381134771176265,-0.001250171735893,-6.72535762001868e-05,5.15019212427765e-06
-0.00381578229759826,-0.0012463570384,-7.13425289943357e-05,8.12568062999784e-06
-0.00382099174386214,-0.00124424703384918,-7.64850479918403e-05,9.72109703595859e-06
-0.00383051656666497,-0.00124527223380042,-8.58388961894604e-05,7.87726410229261e-06
-0.00384022020341278,-0.0012489915638561,-9.59207598141448e-05,4.85091794648673e-06
-0.00384435676600675,-0.00124892003827811,-0.000101288732644224,3.92981953725189e-06
-0.00384507202178669,-0.0012470842151096,-0.000100089727800828,4.92558471238008e-06
-0.00383777641283133,-0.00124691732209428,-9.42195887089537e-05,5.30742350673312e-06
-0.00382782243656054,-0.00124772794531154,-8.61196730324774e-05,4.54465606154306e-06
-0.0038198592555439,-0.0012467385081493,-7.65260345663317e-05,4.85666308384427e-06
-0.00380710386080169,-0.00124300725716396,-6.45221436236588e-05,7.73259253780311e-06
-0.00378980659185687,-0.00123971708057625,-4.94210833422426e-05,1.15564151491408e-05
-0.00377361796937096,-0.00123784549461874,-3.29268896802476e-05,1.34069125358248e-05
-0.00375895522588225,-0.00123772628532209,-1.857747180767e-05,1.24572455697497e-05
-0.00374677203576398,-0.00123944289919394,-7.69690295467086e-06,1.0822853924529e-05
-0.0037344219526304,-0.00123921640153029,3.39247686637025e-06,1.0832006306961e-05
-0.0037172915767009,-0.00123837001552403,2.00149506121131e-05,1.17528287719502e-05
-0.00369395039641561,-0.00123972900150591,4.25700553261031e-05,1.00637844339923e-05
-0.00367102644866863,-0.00124527223380042,6.46819839520542e-05,3.49890011775265e-06
-0.00365510008663536,-0.00125520236821189,7.83988729340468e-05,-6.02802838492952e-06
-0.00365258477047591,-0.0012641430654611,8.04929883068641e-05,-1.4656700156817e-05
-0.00365932009573699,-0.00126953132566996,7.39163637412584e-05,-2.10199334319552e-05
-0.00366544745358511,-0.00127403743708357,6.46123440602835e-05,-2.67293683813206e-05
-0.0036720754904792,-0.00128145225533558,5.72850369086778e-05,-3.27078025729022e-05
-0.00367670081118946,-0.00128533847840658,5.28533452352634e-05,-3.72657332639458e-05
-0.00367794058787469,-0.00128507621795393,4.8980987445686e-05,-3.84892428707581e-05
-0.00368298314112324,-0.00128353841802707,4.34283997459037e-05,-3.66043716228608e-05
-0.00368766806648183,-0.00127950914380009,3.70755800566529e-05,-3.28580768955607e-05
-0.00369076750819489,-0.00127441890683287,3.3028043737043e-05,-2.77253600571391e-05
-0.00369074366633556,-0.00126690872114353,3.27158368948061e-05,-2.17298167718175e-05
-0.00368710778278755,-0.00126127012141169,3.38396079948246e-05,-1.67053464711585e-05
-0.00368740580602919,-0.00126004226565613,3.25115278600408e-05,-1.42925802646993e-05
-0.00369341395458066,-0.00125788457738665,2.66135885170305e-05,-1.37133973865583e-05
-0.00370155594954228,-0.00125552423331286,1.67959537239165e-05,-1.27354623696252e-05
-0.00371108077234511,-0.00125386722408934,5.36822055349999e-06,-1.0621951206052e-05
-0.00372097514396758,-0.00125184066604618,-4.78561069511951e-06,-8.5088670259558e-06
-0.00372639916696543,-0.00124770410345221,-1.09604186251531e-05,-6.76813321148327e-06
-0.00372643492975443,-0.00124486692219179,-1.19981650755794e-05,-3.70136455307896e-06
-0.00372272752062842,-0.00123898990386664,-9.69434801315986e-06,2.15603929351811e-06
-0.00371977113007135,-0.00122989423453177,-8.24928436388967e-06,9.26241563647287e-06
-0.00372451566007827,-0.00122555501613349,-1.12242979053372e-05,1.37680194342317e-05
-0.00372881911568756,-0.00122545964869616,-1.84078216400536e-05,1.31519325357959e-05
-0.00373529218049599,-0.00122860677412789,-2.57942834356579e-05,8.64785359509371e-06
-0.00373898766869233,-0.00123293407159651,-2.89452313016342e-05,3.74087939270742e-06
-0.00373562596652663,-0.00123615272260622,-2.62575030961309e-05,6.07092762622574e-07
-0.00372754357621333,-0.00123629577376221,-1.89301810988392e-05,-1.22772224773122e-06
-0.00371615908838267,-0.00123656995514452,-8.79394896596333e-06,-2.68136320548114e-06
-0.00370525143773862,-0.00123730905278379,2.49543271580651e-06,-2.91054427236724e-06
-0.00369538090797549,-0.0012337327738841,1.26248078670721e-05,-5.54635171399753e-07
-0.00368801377344214,-0.00122790343927762,1.90820004197073e-05,3.63507217852724e-06
-0.00368492625265874,-0.00122427947665927,2.11355026645724e-05,7.34950346851836e-06
-0.00368651173630427,-0.00122076280240791,1.97863484601132e-05,9.92068379293003e-06
-0.00369334242900267,-0.00121725804908622,1.51005948470795e-05,1.29267518768909e-05
-0.00369986317752976,-0.00121183402608836,5.71766647452051e-06,1.70373786544105e-05
-0.0037126781769203,-0.00120760209605706,-7.38567174260776e-06,2.04702552072126e-05
-0.00372651837626209,-0.00120649344959816,-1.87170145332448e-05,2.1951082335557e-05
-0.00373017810166944,-0.00120372779391574,-2.27404632686863e-05,2.31167784826187e-05
-0.00372557662281851,-0.00120066411499167,-1.98506961910094e-05,2.56804640773045e-05
-0.00372165463695852,-0.00119799382674657,-1.53297217345124e-05,2.76089669083935e-05
-0.00372149966487286,-0.00120038993360936,-1.2808777479416e-05,2.50331095447464e-05
-0.0037196161579857,-0.00120757825419773,-1.16088835229012e-05,1.76940461902018e-05
-0.00371663592556929,-0.00121345527252288,-1.04888195474759e-05,9.76367709974876e-06
-0.00371911547893974,-0.00121908195132506,-1.038324481395e-05,4.73384137106174e-06
-0.00372165463695852,-0.00122222907675678,-1.17716791126201e-05,1.70946261032054e-06
-0.00372053406956995,-0.0012250662580172,-1.21741718457189e-05,-2.41639155495288e-06
-0.00371781609760619,-0.00123076446239736,-8.94122767279289e-06,-9.01325179748967e-06
-0.0037138941117462,-0.00123994357823989,-3.1992544545819e-06,-1.69650176811695e-05
-0.00370967410264457,-0.00124610669887702,1.32773147346276e-06,-2.42168147675842e-05
-0.00370773099110907,-0.00125021941961166,2.72496367186644e-06,-2.87919479705904e-05
-0.00370939992126226,-0.00125112541026624,2.1007110375561e-06,-2.9522804701503e-05
-0.00371177218626572,-0.0012486100941068,9.51618317538526e-07,-2.71706588354374e-05
-0.00371323846061459,-0.00124541528495641,-4.12838538662407e-07,-2.41188412388119e-05
-0.00371452592101848,-0.00124354369899891,-1.61851141519951e-06,-2.19580845239402e-05
-0.00371603987908601,-0.00124076612238682,-1.51550623792849e-06,-2.00727647649088e-05
-0.00371433518614383,-0.00123887069456999,2.12637241604447e-07,-1.7289045958178e-05
-0.00371300004202128,-0.00123527057381097,2.07340316669622e-06,-1.36360340797899e-05
-0.00371327422340359,-0.00123049028101506,2.89221878761211e-06,-9.17578844592738e-06
-0.00371233246996,-0.00122386224412097,4.50955382785461e-06,-2.30761169771993e-06
-0.00370601437723722,-0.0012132049329999,1.07050043737475e-05,8.62340968961945e-06
-0.0036956193265688,-0.00120050914290602,2.23403457924628e-05,2.2078989418614e-05
-0.00368517659218172,-0.00118849284580307,3.40166915495194e-05,3.33504799546977e-05
-0.00368160031328203,-0.00118427283670144,3.72398807288246e-05,3.8339959551703e-05
-0.00369120858259252,-0.00118659741798624,2.83660621161513e-05,3.66741682952603e-05
-0.00370773099110907,-0.00119162805030513,1.31176269949869e-05,3.13162333334873e-05
-0.00372006915331299,-0.0011976719616456,1.65818285061287e-06,2.60926388794189e-05
-0.00372262023226143,-0.00120050914290602,-1.30785305597932e-06,2.33771252458014e-05
-0.00372269175783943,-0.00120130784519362,-2.93501200820685e-07,2.28946320823583e-05
-0.00372620843209078,-0.00120242841258218,-2.43987104094805e-06,2.23782122561608e-05
-0.00373296759921119,-0.00120512254268661,-9.08724535705516e-06,1.99805813368048e-05
-0.00373984597562825,-0.00120941407736624,-1.56378927865001e-05,1.60277373368389e-05
-0.00374373219869925,-0.00121355063996021,-1.8275806007119e-05,1.19338195433851e-05
-0.0037435057010356,-0.00121840245833412,-1.78475897710255e-05,7.97295542466451e-06
-0.00374405406380022,-0.00122371919296498,-1.70828260907884e-05,3.21589500051199e-06
-0.0037442328777452,-0.00122890479736953,-1.69401895918622e-05,-2.6122220570162e-06
-0.00374408982658922,-0.00123527057381097,-1.69938368186503e-05,-8.34626047646809e-06
-0.00374629519857736,-0.00124055154565284,-1.72343449729422e-05,-1.23376430383357e-05
-0.00374730847759893,-0.00124102838283946,-1.76378803025909e-05,-1.33563990557666e-05
-0.00374683164041231,-0.0012383104108757,-1.73106022397625e-05,-1.11542489837322e-05
-0.00374569915209407,-0.00123600967145024,-1.58009965444014e-05,-7.41720255626297e-06
-0.00374606870091371,-0.00123425729478939,-1.41993756703795e-05,-5.4345972984e-06
-0.00374577067767207,-0.001234877183132,-1.33045197578587e-05,-6.94313238350072e-06
-0.00374360106847293,-0.00123825080622737,-1.19159842267887e-05,-9.70769067447791e-06
-0.00374182484995275,-0.00123879916899199,-8.9734896289618e-06,-1.03372672875035e-05
-0.00374095462208716,-0.00123816735971972,-6.14077679066927e-06,-9.06631525469342e-06
-0.00374026320816655,-0.00123755939230677,-5.42677580957938e-06,-8.8538959501677e-06
-0.00373914264077798,-0.00123677261094884,-4.9569388664164e-06,-9.60700402731286e-06
-0.00373637698509556,-0.00123630769469188,-6.38386825642438e-07,-7.03274047645039e-06
-0.00373024962724743,-0.0012276650206843,7.73702342427596e-06,1.03058251055232e-06
-0.00372065327886661,-0.0012162566909943,1.58881404677202e-05,1.03765874410155e-05
-0.0037153484651654,-0.00121243007257164,2.17184965917578e-05,1.52677253839273e-05
-0.00371110461420444,-0.00121272809581328,2.83361597135173e-05,1.51951530931813e-05
-0.00370179436813559,-0.00121291883068793,3.73741850741344e-05,1.37022633290017e-05
-0.00369684718232436,-0.00121346719345255,4.28302327195714e-05,1.20923259585893e-05
-0.00370384476803808,-0.0012185455094901,3.65239353044778e-05,7.850508002056e-06
-0.00372191689741116,-0.00122643716492874,1.88214132368198e-05,-1.09300586997105e-06
-0.00374300502198964,-0.00123794086205607,-3.46294272008914e-07,-1.35665871216536e-05
-0.00375341199358773,-0.0012505174428533,-1.15190392638483e-05,-2.67408186588245e-05
-0.00375596307253617,-0.00126175887952798,-1.36115625351098e-05,-3.81284029436614e-05
-0.00375562928650554,-0.00126817233968808,-1.16801133474937e-05,-4.5999132322377e-05
-0.00375478290049928,-0.00127184398602509,-1.04227023421536e-05,-5.01205076366957e-05
-0.00375555776092754,-0.00127351291617828,-1.12967476930585e-05,-5.23330623693081e-05
-0.00375791810500134,-0.00127378709756059,-1.33200437505235e-05,-5.4504970844741e-05
-0.00376079104905075,-0.00127537258120612,-1.44728785722663e-05,-5.59800534390446e-05
-0.00375896714681191,-0.0012732625766553,-1.3059428330779e-05,-5.49169886981459e-05
-0.00375471137492128,-0.00126827962805507,-8.50763977464962e-06,-5.15463046697564e-05
-0.00374743960782526,-0.00126318939108785,-4.02556725178173e-07,-4.73294729061782e-05
-0.00373512528748067,-0.00125647790768611,1.22802157112781e-05,-4.1066790564365e-05
-0.00371869824640144,-0.00124351985713958,2.8668096440402e-05,-2.93111692870229e-05
-0.0037051918330903,-0.00122396953248796,4.32252175767733e-05,-1.16865578284329e-05
-0.00369879029385986,-0.00120470531014832,4.90185553018028e-05,7.21797545598875e-06
-0.00370335600992179,-0.00118829018999876,4.50032077595442e-05,2.27596133373702e-05
-0.00371176026533605,-0.00117514140457758,3.74058245047636e-05,3.43678836825452e-05
-0.00371631406046832,-0.00116518742830678,3.24318843097903e-05,4.30222355214211e-05
-0.00371851943245646,-0.00115952498671561,2.99200371247879e-05,4.74702333398262e-05
-0.00372382424615766,-0.00116106278664248,2.56285173792385e-05,4.60705805745216e-05
-0.00373179934810396,-0.00116368539116892,1.73238312122237e-05,4.10050673668165e-05
-0.00374237321271737,-0.00116568810735274,6.6509114154362e-06,3.74350706832206e-05
-0.00375168345878622,-0.00116546160968909,-3.05972212607709e-06,3.82531529743081e-05
-0.0037582757328913,-0.0011604667401592,-9.03654683072627e-06,4.14747643619872e-05
-0.00375988505839616,-0.00115681893568152,-1.11049278905802e-05,4.29302709846671e-05
-0.00376175664435367,-0.00115945346113762,-1.32831526645238e-05,4.03099486751122e-05
-0.00376929067190234,-0.00116419799114454,-2.11175829043684e-05,3.46828456892221e-05
-0.00378298782008814,-0.00116827494909018,-3.5122989657283e-05,2.9107544577894e-05
-0.00379723333103855,-0.00117015845597735,-4.87627746435755e-05,2.57488975180883e-05
-0.00380182288895982,-0.00117152936288889,-5.52341693340117e-05,2.38767167423597e-05
-0.00380097650295356,-0.0011737824185957,-5.43658796257051e-05,2.11684262999145e-05
-0.00379815124262281,-0.00117619044638815,-5.06236201802115e-05,1.72261509173284e-05
-0.003792119252212,-0.00117696530681642,-4.70085894559681e-05,1.45222289551042e-05
-0.00378960393605256,-0.0011772156463394,-4.43377578523874e-05,1.49332293934072e-05
-0.00378941320117791,-0.00117497451156226,-4.40255552851265e-05,1.66125270510662e-05
-0.00379058145228514,-0.00117272145585546,-4.66848251502222e-05,1.58075791648432e-05
-0.00379226230336799,-0.0011775971160887,-4.88288182204666e-05,1.11040119885017e-05
-0.00378859065703098,-0.00118503577620004,-4.56739041653197e-05,4.55547748826344e-06
-0.00377973340628942,-0.00118747956678149,-3.73306497286235e-05,-8.4889632459641e-07
-0.00376938603933966,-0.00118960149226198,-2.8102337822187e-05,-3.6280502250673e-06
-0.00375975392816984,-0.0011904597991979,-1.94767889128461e-05,-4.2207992318342e-06
-0.0037488462775258,-0.00118999488294094,-8.19327090565203e-06,-4.16085954068251e-06
-0.00373097680395703,-0.00118826634813943,7.86811706107951e-06,-4.67835816483397e-06
-0.00371174834440639,-0.00118904120856769,2.60790525340699e-05,-5.56086000725432e-06
-0.00369538090797549,-0.00118999488294094,4.26652990694374e-05,-6.02032081541567e-06
-0.00368142149933705,-0.00118907697135669,5.5825110727637e-05,-6.95857174823548e-06
-0.00367100260680929,-0.00119229562236641,6.34359721130564e-05,-1.07744271191204e-05
-0.00367411396945202,-0.00119943625923611,6.1898779158236e-05,-1.78443387181951e-05
-0.00368452094105011,-0.00120576627288856,5.05807323868471e-05,-2.49326839199204e-05
-0.00369696639162102,-0.00120859153321931,3.47251586889063e-05,-2.89519696940992e-05
-0.0037127497024983,-0.00121120221681608,2.07966041575604e-05,-3.0923284550535e-05
-0.00372220299972314,-0.00121276385860228,1.06976447744365e-05,-3.39143969681399e-05
-0.00372692368787072,-0.00121612556076798,2.88612566919363e-06,-3.79975875589561e-05
-0.00373394511544377,-0.00121876008622408,-3.22719986651185e-06,-3.98853626993045e-05
-0.00373767636642911,-0.0012151838073244,-7.23362358183562e-06,-3.73440910548097e-05
-0.00373932145472297,-0.00120766170070539,-1.02808138989081e-05,-3.15591688972786e-05
-0.00374157451042977,-0.00120271451489416,-1.38576546596543e-05,-2.4983413521389e-05
-0.00374473355679116,-0.00119543082686846,-1.63622633721563e-05,-1.89772620294578e-05
-0.00374172948251542,-0.00118948228296532,-1.39853812452274e-05,-1.38479006039279e-05
-0.0037317874271743,-0.00118469006923974,-5.39220618046853e-06,-9.21724536391957e-06
-0.00371967576263402,-0.00117938525553854,6.51781043425376e-06,-3.90354295684809e-06
-0.00370854161432633,-0.00117230422331716,1.75780628135646e-05,2.80045084206493e-06
-0.00370042346122405,-0.00116488940506514,2.52755770302873e-05,9.31439071975277e-06
-0.00369666836837938,-0.0011611581540798,2.88653636188066e-05,1.29053201977639e-05
-0.00369513056845251,-0.00116096741920515,2.87393333357834e-05,1.30564998514408e-05
-0.00369889758222685,-0.00116209990752339,2.64209681433052e-05,1.2110588266736e-05
-0.00370157979140161,-0.00116013295412856,2.38919732895844e-05,1.21641743851062e-05
-0.00370119832165231,-0.00116050250294819,2.20691973252289e-05,1.29326638918793e-05
-0.00370384476803808,-0.00115997798204291,2.02134939559719e-05,1.31182678018602e-05
-0.00370886347942731,-0.00116016871691756,1.68986420078861e-05,1.218725464316e-05
-0.00371260665134231,-0.00116204030287506,1.14316402135251e-05,1.00800206703129e-05
-0.00371879361383877,-0.00116570002828241,4.74742844188121e-06,6.58388398959121e-06
-0.00372653029719176,-0.00117040879550033,-1.00683773695119e-06,1.74606863658124e-06
-0.00372990392028713,-0.00117577321384986,-4.64547149277178e-06,-4.02063760205096e-06
-0.0037324788410949,-0.00118155486473768,-7.81554396405606e-06,-1.03141891487723e-05
-0.0037385465942947,-0.00118807561326478,-1.32658156316637e-05,-1.60009226395028e-05
-0.00374717734737261,-0.00118982798992562,-2.07747328888722e-05,-1.84923391587568e-05
-0.00375291131454178,-0.00118697888773554,-2.6576253028748e-05,-1.58542313833916e-05
-0.00375425837959399,-0.00118119723684771,-2.77617198777932e-05,-9.7150712528285e-06
-0.00375247024014415,-0.00117517716736657,-2.53046429858919e-05,-3.82204778899112e-06
-0.0037495734542354,-0.00117067105595297,-2.13793491013178e-05,5.14758919486449e-07
-0.00374453090098684,-0.00116620070732836,-1.59408641875112e-05,4.96249359815558e-06
-0.00373672269205586,-0.00116162307033676,-8.25133447685517e-06,9.83526294767849e-06
-0.00373004697144311,-0.00115878588907635,6.45896753662109e-08,1.26678976873526e-05
-0.00372425339962562,-0.00115846402397537,6.42937256989653e-06,1.26416383592295e-05
-0.00372025988818764,-0.00115866667977969,1.06571848579218e-05,1.30957872249017e-05
-0.00371780417667652,-0.0011547804567087,1.39202075249973e-05,1.69800848603907e-05
-0.00371800683248084,-0.00114912993604719,1.52434069443709e-05,2.22958997032643e-05
-0.00372084401374126,-0.00114717490358203,1.25359083046059e-05,2.50703179053596e-05
-0.00372692368787072,-0.00114701993149638,7.16516787932043e-06,2.50350578862842e-05
-0.00373146556207332,-0.00114694840591838,3.9529990812214e-06,2.51653703752194e-05
-0.00373075030629339,-0.0011460066524748,5.39976554616167e-06,2.67951491135111e-05
-0.00372834227850093,-0.00114418275023596,8.52945153684843e-06,2.84219823147917e-05
-0.0037286999063909,-0.00114412314558763,8.88422525417032e-06,2.87722833690338e-05
-0.00373305104571885,-0.00114531523855419,5.5889431896945e-06,2.80052481042427e-05
-0.00373898766869233,-0.00114763981983899,9.60658910143402e-07,2.597121217231e-05
-0.00374318383593463,-0.00115164525220664,-3.17260948842085e-06,2.20144234738229e-05
-0.00374797604966021,-0.00115709311706383,-6.82177709821623e-06,1.6817241791816e-05
-0.00375221990062117,-0.00116227872146837,-1.0188758333244e-05,1.22907850948455e-05
-0.0037557127330132,-0.0011653543213221,-1.2282633529059e-05,9.36741665642284e-06
-0.00375518821210791,-0.00116724974913894,-1.16274637085242e-05,7.51676517840584e-06
-0.00375188611459053,-0.00116893060022179,-8.284792977046e-06,6.06435110025206e-06
-0.00375152848670056,-0.00117213733030184,-5.12827693036416e-06,4.04766182515616e-06
-0.00375241063549582,-0.00117611892081016,-6.13769598418041e-06,-5.7997089208021e-07
-0.00375790618407167,-0.0011847735157474,-1.21292280760568e-05,-8.91426895836064e-06
-0.00376647733250125,-0.00119518048734549,-1.86248792206242e-05,-1.8326255301511e-05
-0.00376834891845875,-0.0012011409521783,-1.95532465364266e-05,-2.44666362253644e-05
-0.00376191161643932,-0.00120332248230711,-1.30688891256351e-05,-2.64659988737076e-05
-0.00375120662159959,-0.00120505101710862,-2.48579873097956e-06,-2.76581214287754e-05
-0.003742706998748,-0.00120823390532934,7.92000458313689e-06,-3.06880934739757e-05
-0.00373507760376201,-0.001212167812119,1.59310727290623e-05,-3.45480867923752e-05
-0.00373069070164506,-0.00121554143521437,2.05128504780178e-05,-3.72081935554294e-05
-0.00373036883654409,-0.00121660239795461,2.07355172740668e-05,-3.83830481394276e-05
-0.00373603127813526,-0.00121626861192397,1.65749684255133e-05,-3.83492927044048e-05
-0.0037442686405342,-0.00121567256544069,8.9678176579591e-06,-3.66186636758317e-05
-0.00375398419821168,-0.00121291883068793,-1.47653259463368e-06,-3.36902282720364e-05
-0.00376721643014052,-0.0012102604633725,-1.37855968282166e-05,-3.20837822272138e-05
-0.00377820752729222,-0.00121250159814963,-2.4277068441407e-05,-3.34712562958247e-05
-0.00378234408988619,-0.00121576793287801,-2.78374881150731e-05,-3.5999247887923e-05
-0.00377730153663764,-0.0012155295142847,-2.312133918372e-05,-3.60481556544699e-05
-0.00376852773240374,-0.00120975978432654,-1.41313711669257e-05,-3.14062535086536e-05
-0.00376011155605981,-0.00120085484986632,-5.03532974999964e-06,-2.15160860520489e-05
-0.00375161193320822,-0.00118764645979681,3.87915348871376e-06,-6.65297801237066e-06
-0.00374217055691305,-0.00116732127471693,1.27219588688076e-05,1.08842737056841e-05
-0.00373777173386644,-0.00115222937776025,1.74674807151743e-05,2.62897729487106e-05
-0.0037423612917877,-0.00114529139669486,1.33219822555059e-05,3.5689352941008e-05
-0.00375396035635235,-0.00113941437836971,1.86183863423632e-06,3.95523653830156e-05
-0.00376474879769974,-0.00113756663427154,-9.32468024065791e-06,4.06461225949246e-05
-0.00377031587185358,-0.00114007002950132,-1.47342033781465e-05,3.94913067496218e-05
-0.00377130530901583,-0.00114490992694556,-1.55126118367443e-05,3.44616132086127e-05
-0.00377091191833686,-0.0011524916382129,-1.51794542872466e-05,2.6044531765827e-05
-0.00377014897883826,-0.00116006142855057,-1.41002119614405e-05,1.81113715071178e-05
-0.00376515410930837,-0.00116463906554217,-1.02194379876088e-05,1.4216793427301e-05
-0.00375889562123392,-0.00116370923302825,-3.11749113067133e-06,1.45578822353298e-05
-0.00375103972858427,-0.00116087205176783,5.02009520338115e-06,1.70098451671491e-05
-0.00374361298940259,-0.0011585951542017,1.15360103419786e-05,1.91467382724621e-05
-0.00374015591979956,-0.00115854747048303,1.4730309870131e-05,1.86946703181837e-05
-0.00374172948251542,-0.00116339928885694,1.40572919982536e-05,1.43259000950143e-05
-0.00374441169169019,-0.00116926438625243,1.06744144629079e-05,7.46768918626049e-06
-0.0037477376310669,-0.0011745453580943,7.36504964128868e-06,1.72111623945891e-06
-0.00374817870546452,-0.00117769248352602,6.29697038653038e-06,-1.06447194949768e-06
-0.00374815486360519,-0.00117888457649258,6.91492516293314e-06,-2.96174594447509e-06
-0.00374752305433291,-0.00118231780423628,7.26616411246354e-06,-6.72664633721985e-06
-0.00374739192410659,-0.00118651397147858,7.10392852618122e-06,-1.15165329409103e-05
-0.00374604485905438,-0.00118882663183371,8.0749674903277e-06,-1.3826953082922e-05
-0.00374355338475426,-0.00118685967843888,1.07382360531389e-05,-1.22551654550345e-05
-0.00374128840811779,-0.00118296153443822,1.31631784272181e-05,-9.22751480505577e-06
-0.00374072812442351,-0.00118144757637069,1.32284106059383e-05,-7.60175283705189e-06
-0.00374287389176332,-0.00118033892991179,1.08193224647637e-05,-7.34151365956891e-06
-0.00374674819390465,-0.00117954022762419,6.64115532219571e-06,-6.65409285365957e-06
-0.00375416301215667,-0.00117768056259635,2.68879237354406e-07,-5.28080605836369e-06
-0.00376220963968096,-0.00117648846962979,-8.67319987543824e-06,-5.0435116001634e-06
-0.00377041123929091,-0.00117872960440693,-1.78881920442509e-05,-7.07027577006675e-06
-0.00377681277852135,-0.00118042237641945,-2.31043587863959e-05,-9.60569671961629e-06
-0.00377590678786676,-0.00117965943692085,-2.20378846581003e-05,-9.32342137144316e-06
-0.00376936219748033,-0.00117439038600864,-1.64348717782953e-05,-4.69781493160938e-06
-0.00376180432807233,-0.0011672616700686,-9.72694848619697e-06,2.27480827032514e-06
-0.00375784657942334,-0.00116100318199415,-3.92985382950507e-06,7.84384191569073e-06
-0.00375273250059679,-0.00115789181935142,5.2134385027061e-07,1.00269984285871e-05
-0.00374890588217413,-0.00115771300540644,3.37728029670365e-06,1.03982939879561e-05
-0.0037480475752382,-0.00115468508927137,4.5618065459025e-06,1.22693990539183e-05
-0.00374821446825352,-0.00114952332672616,4.98636396698903e-06,1.70159811969905e-05
-0.00374717734737261,-0.00114374167583833,6.03173657379218e-06,2.2458283440682e-05
-0.00374394677543323,-0.00114012963414965,8.26679394296325e-06,2.51787127860548e-05
-0.00374097846394649,-0.00114078528528126,1.13615688873103e-05,2.40727119867488e-05
-0.00373886845939567,-0.00114344365259669,1.47213799799289e-05,2.07964078719989e-05
-0.00373525641770699,-0.00114692456405905,1.72754888858e-05,1.6872384338434e-05
-0.00373526833863666,-0.0011508942336377,1.73853665314152e-05,1.19378044761148e-05
-0.00373806975710808,-0.00115675933103319,1.45260974338295e-05,5.83939885375513e-06
-0.00374202750575706,-0.00116076476340084,1.08142239614814e-05,9.46667317480229e-07
-0.00374437592890119,-0.00116132504709512,9.18207317490829e-06,-8.26058389245799e-10
-0.00374269507781834,-0.00115889317744334,9.83671216230665e-06,1.75302121283513e-06
-0.00374199174296807,-0.00115834481467872,1.00876086640099e-05,1.20821634850173e-06
-0.0037462117520697,-0.00116485364227615,8.0261620336412e-06,-4.83526220352253e-06
-0.00374844096591717,-0.00117261416748847,4.65433155407462e-06,-1.42983570145617e-05
-0.00375096820300628,-0.00118123299963671,1.58600053861373e-06,-2.30937110383773e-05
-0.00375481866328827,-0.00118762261793748,-1.61324585456785e-06,-2.98886865880674e-05
-0.00376026652814546,-0.0011923313851554,-6.30364229107142e-06,-3.55234096072021e-05
-0.00376572631393232,-0.00119571692918044,-1.21445221335681e-05,-3.93366847953892e-05
-0.0037704827648689,-0.00119520432920482,-1.72977235124577e-05,-3.93754399257671e-05
-0.00377409480655758,-0.00119102008289218,-2.07632864179226e-05,-3.6251243605447e-05
-0.0037776591645276,-0.00118914849693468,-2.30745097146055e-05,-3.3756500969507e-05
-0.00377928041096213,-0.00118799216675712,-2.49283637888266e-05,-3.45950343885462e-05
-0.00377936385746979,-0.00119129426427449,-2.63473578321154e-05,-3.76882592966065e-05
-0.00378140233644261,-0.00119405991995692,-2.69711522327653e-05,-4.07020644872852e-05
-0.00378141425737227,-0.00119490630596318,-2.60653164998652e-05,-4.27570038137357e-05
-0.00377686046224001,-0.00119490630596318,-2.26024256694632e-05,-4.27331167936791e-05
-0.00377068542067322,-0.00118856437138107,-1.66451490152349e-05,-3.72031655187967e-05
-0.00376580976043998,-0.00117458112088329,-1.03437372449713e-05,-2.35635647832394e-05
-0.00376130364902637,-0.00115607983804225,-5.99851287637758e-06,-5.02464695430513e-06
-0.00375868104449994,-0.00113912827605774,-3.19933355955353e-06,1.0598834311454e-05
-0.00375423453773466,-0.00113117701597077,4.11271334623952e-07,1.83551981277399e-05
-0.00375061057511631,-0.00112943656023959,5.42424160360216e-06,2.08277111642717e-05
-0.0037469746915683,-0.00112425095583504,9.76391892105842e-06,2.42720141295161e-05
-0.00374306462663797,-0.00111699110966868,1.21721606078083e-05,3.13773220387057e-05
-0.00374184869181208,-0.00110938555654201,1.44105157878605e-05,3.93284249442782e-05
-0.00373880885474735,-0.00110404498005181,1.84001679862738e-05,4.43682127470142e-05
-0.00373348019918681,-0.00110088593369042,2.27369176513069e-05,4.63003630283158e-05
-0.00373338483174949,-0.00109963423607553,2.40287363263933e-05,4.76150766018771e-05
-0.0037362935385879,-0.00109878785006928,2.08687478929214e-05,4.93076907296857e-05
-0.00374208711040539,-0.00109721428735341,1.4729223124941e-05,4.94048907096959e-05
-0.00375094436114695,-0.00110005146861383,7.64757961492636e-06,4.61624679115238e-05
-0.00375688098412043,-0.00110580927764233,9.975476881113e-07,4.12899731889169e-05
-0.00376137517460437,-0.00110822922636445,-3.81809761495002e-06,3.82932330456538e-05
-0.00376414083028679,-0.00110776431010749,-5.61788887716192e-06,3.78991102007953e-05
-0.00376398585820114,-0.00110890871935539,-4.75220109956529e-06,3.7035171818671e-05
-0.0037613632536747,-0.00111322409589434,-2.60714132583445e-06,3.3004328239235e-05
-0.00375815652359465,-0.00111846930494722,4.4985971758839e-07,2.69855360372159e-05
-0.00375438950982031,-0.00112303502100915,5.14208417791325e-06,2.20635501996842e-05
-0.00374885819845546,-0.00112663514176817,1.10949862057694e-05,1.90488091089033e-05
-0.00374387524985523,-0.00112893588119363,1.62493791224749e-05,1.60420139381543e-05
-0.00373994134306558,-0.00113346583446657,1.90441628045606e-05,1.14737120772581e-05
-0.0037408711755795,-0.00113903290862041,1.97940627995882e-05,5.6678568722336e-06
-0.00374187253367141,-0.00114510066182021,1.93683422428673e-05,-4.13084707259943e-07
-0.0037423612917877,-0.00115029818715442,1.79018664724535e-05,-6.06981573905103e-06
-0.00374494813352514,-0.00115486390321636,1.53490730661903e-05,-1.033550460437e-05
-0.0037496092170244,-0.00115609175897191,1.17576823273295e-05,-1.24596018117772e-05
-0.00375591538881751,-0.00115734345658681,6.28207914488148e-06,-1.36330007693112e-05
-0.00376297257917956,-0.00116066939596351,-2.33000555612072e-06,-1.66562872601246e-05
-0.00377423785771357,-0.0011657715538604,-1.30556551704301e-05,-2.289252163617e-05
-0.00378425143863269,-0.0011734009488464,-2.18808241671442e-05,-3.06147233477599e-05
-0.0037875773780094,-0.00118038661363045,-2.52417015754056e-05,-3.70944976587506e-05
-0.00378468059210066,-0.00118310458559421,-2.31967225161522e-05,-4.11416536927418e-05
-0.00377979301093775,-0.00118498809248138,-1.8119702789882e-05,-4.28227613934949e-05
-0.00377475045768919,-0.00118398673438947,-1.17225677304815e-05,-4.21746108369459e-05
-0.00376760982081949,-0.00118076808337975,-5.00257232600069e-06,-3.96298378410938e-05
-0.00376157783040868,-0.00117793090211933,2.29465448412411e-07,-3.6647218136857e-05
-0.00376017116070814,-0.00117470033017995,2.12955636247776e-06,-3.42956285365835e-05
-0.00376231692804795,-0.00117191083263819,8.78913560356579e-07,-3.19094959882413e-05
-0.00376434348609111,-0.00116857297233182,-1.61913135418093e-06,-2.87322962054092e-05
-0.00376584552322897,-0.00116562850270441,-3.70828397961812e-06,-2.61520996945867e-05
-0.00376678727667256,-0.00116448409345651,-4.42389996959584e-06,-2.61250405856116e-05
-0.00376654885807925,-0.00116592652594605,-3.12561525545141e-06,-2.74328317964624e-05
-0.0037633063652102,-0.00116374499581724,-8.16168540559874e-07,-2.59440056057315e-05
-0.00376322291870254,-0.00115695006590784,-1.04282776857555e-06,-1.97088182599098e-05
-0.00376926683004301,-0.00114920146162519,-6.7598410101383e-06,-1.21338178377041e-05
-0.00377907775515781,-0.00114417082930629,-1.60931525642451e-05,-8.5531279441365e-06
-0.00378593228971555,-0.00114654309430975,-2.35275858059655e-05,-1.04485888595631e-05
-0.00378762506172806,-0.00115009553135011,-2.57271508969062e-05,-1.44261061636015e-05
-0.00378651641526916,-0.00115057236853673,-2.41036638864477e-05,-1.64342090966734e-05
-0.00378366731307908,-0.00114930874999218,-2.12909128721992e-05,-1.54993728040976e-05
-0.00377975724814875,-0.00114766366169832,-1.76646956909972e-05,-1.31228206315703e-05
-0.00377423785771357,-0.00114358670375268,-1.25921673534131e-05,-1.03572046653961e-05
-0.00376870654634872,-0.00113849646678546,-6.87761355921024e-06,-6.58349458891943e-06
-0.00376371167681883,-0.00113312012750626,-1.93101021415572e-06,-9.15815992999355e-07
-0.00375940822120954,-0.00112686163943181,2.37310375624189e-06,6.200997590373e-06
-0.00375379346333703,-0.00111743218406631,7.25913341898984e-06,1.33998424882101e-05
-0.00374809525895686,-0.00110992199837697,1.29794896854048e-05,2.00239404151442e-05
-0.00374307654756764,-0.00110535628231503,1.8303496097095e-05,2.64400156109141e-05
-0.00373978637097993,-0.00109847790589797,2.15329896374104e-05,3.2429315739526e-05
-0.00373865388266169,-0.00109268433408048,2.12601120658861e-05,3.62055281895243e-05
-0.00374389909171457,-0.0010935784038054,1.70728267103375e-05,3.61300988827815e-05
-0.00375016950071868,-0.00109763151989171,1.06515810277881e-05,3.31048973199095e-05
-0.00375454448190597,-0.00109919316167791,5.40363462234931e-06,2.9993005150263e-05
-0.00375651143530079,-0.00110020644069948,3.70475990266261e-06,2.84551827062836e-05
-0.00375512860745958,-0.00110183960806367,4.85245181225793e-06,2.75808149483807e-05
-0.0037533523889394,-0.00110385424517716,6.65659131252581e-06,2.61559775462319e-05
-0.00375143311926324,-0.00110398537540349,8.33236030001147e-06,2.48826166212922e-05
-0.00374914430076744,-0.00110390192889583,1.04742054298051e-05,2.50657314927866e-05
