BCL,BCC,BCL_Filtered,BCC_Filtered
-,-,-,-
0.000181210051847103,0.00048795941400286,4.50332398204009e-22,9.55263228625513e-21
0.000183880340092202,0.000497257739142045,2.9416988823111e-06,9.83939404959475e-06
0.000187265884117239,0.000507605106091804,3.87963491911311e-06,1.94364862582885e-05
0.00018728972597657,0.00051684382658266,3.56354287166817e-06,2.84369676754058e-05
0.000187587749218211,0.000524735482021301,4.14237801243024e-06,3.65221783568536e-05
0.000190925609524584,0.000531017811955083,5.85679156221115e-06,4.34759394685168e-05
0.000192511093170112,0.00053701403957689,6.8153575581833e-06,4.88606599176535e-05
0.000192499172240446,0.000540626081265573,6.01591119175519e-06,5.17354128052249e-05
0.000191450130429872,0.000538933309253055,4.82317411095077e-06,5.0998304666602e-05
0.000192654144326099,0.000534069569949482,4.79646926055354e-06,4.61491915387315e-05
0.000194334995408952,0.00052607062614385,5.61563850894797e-06,3.77519230077351e-05
0.000195360195360195,0.000516033203365398,6.39782348800539e-06,2.72894184103963e-05
0.00019766093478566,0.000505244762018011,7.83166204233759e-06,1.66640551426351e-05
0.000201761734590634,0.00049506428808357,1.1153824000598e-05,7.61824253116273e-06
0.000206875813417185,0.000489938288327353,1.54950971150202e-05,1.18377880078753e-06
0.000210165990004897,0.000486469297794658,1.82204432922918e-05,-2.68516656043102e-06
0.000210464013246537,0.000483167200277281,1.81005797359453e-05,-5.08296604888758e-06
0.000209903729552253,0.000479829339970907,1.63937062482839e-05,-7.64667334661463e-06
0.000208568585429703,0.000477755098209089,1.43243984016336e-05,-1.168628976674e-05
0.000205612194872629,0.000472176103125578,1.13795043686646e-05,-1.72537600896215e-05
0.000202250492706924,0.000463998345374962,7.22419986901812e-06,-2.26773339020136e-05
0.000200581562553737,0.000464689759295568,3.61327880348645e-06,-2.51535856786359e-05
0.000198292744057938,0.000466179875503771,2.50022216955825e-06,-2.25363179342696e-05
0.000199961674211125,0.000472748307749528,3.09833944534227e-06,-1.54080607710268e-05
0.000201463711348993,0.000481474428264763,2.79857208920815e-06,-7.56457088928126e-06
0.000199079525415869,0.000484907656008461,7.32269577798358e-07,-3.65133581970641e-06
0.000196635734834417,0.000483346014222265,-1.56824934532795e-06,-5.40521145649171e-06
0.000196814548779401,0.000478673009793342,-3.32786084139017e-06,-1.02440308936134e-05
0.000194180023323299,0.000474214582098399,-6.33667795598122e-06,-1.41283585396466e-05
0.000187981139897176,0.000473582772826122,-1.23958808162526e-05,-1.56712759008983e-05
0.000180780898379141,0.000471723107798285,-2.01715498688781e-05,-1.67311272086523e-05
0.000176119814879883,0.00046904089862352,-2.61297003609774e-05,-1.92483455797338e-05
0.000174438963797031,0.000466895131283708,-2.83269895423338e-05,-2.28309876492834e-05
0.0001740336521884,0.000462543991955757,-2.80834232412962e-05,-2.57230940026608e-05
0.00017566681955259,0.000461185005973876,-2.77368508187823e-05,-2.66108951550169e-05
0.000176823149730155,0.000465106991833865,-2.76364194803321e-05,-2.45363452772785e-05
0.000178229819430698,0.00047048333111306,-2.59433001108865e-05,-1.84675222959881e-05
0.0001831531633826,0.000478708772582339,-2.11069052045783e-05,-8.65543306029086e-06
0.000191581260656194,0.000490808516192944,-1.39158391989121e-05,2.27715209285933e-06
0.000199329864938847,0.000500834018041731,-6.80062793237597e-06,1.13517551969439e-05
0.000204122078664427,0.00050619843639126,-1.3643680833608e-06,1.81679043589516e-05
0.000209224236561312,0.00051147940823313,2.83113312420268e-06,2.43092674118966e-05
0.000214099896794551,0.000518441231157853,6.89160955645861e-06,2.99296909109916e-05
0.000217771543131563,0.00052212479842453,1.07307246782043e-05,3.26876963150823e-05
0.00022060872439198,0.000516998798668313,1.33605440576095e-05,3.06393425291554e-05
0.000222957147536108,0.000512361557028386,1.47224274062465e-05,2.49262700358415e-05
0.000223791612612701,0.000507521659584144,1.61539789304535e-05,1.89004731963208e-05
0.000227463258949712,0.000503039390029871,1.87062288975843e-05,1.53343603207315e-05
0.000230419649506786,0.000500583678518753,2.17473409717105e-05,1.47598932664286e-05
0.000232231630815961,0.00050301554817054,2.36953809706379e-05,1.55801794131255e-05
0.000232768072650914,0.000503194362115524,2.35642695920977e-05,1.53494924115603e-05
0.000231015695990067,0.000498306780952619,2.13131351420274e-05,1.271385063133e-05
0.000226235403194153,0.000494754343912264,1.72798133498808e-05,8.53729979348865e-06
0.000221657766202555,0.000491166144082912,1.20723591449515e-05,4.68823518431291e-06
0.000217127812929619,0.000487720995409548,6.78319220337527e-06,1.84096758336715e-06
0.000211536896916443,0.00048431160952518,2.50313835142525e-06,-7.78116984772831e-07
0.000209915650481918,0.000481367139897772,-5.4484365842038e-07,-3.92320151962438e-06
0.000206959259924844,0.00047682526569517,-3.01305919909971e-06,-8.03235652022293e-06
0.000203919422860111,0.000470471410183394,-5.57068429926164e-06,-1.40974384674557e-05
0.000202274334566255,0.000461387661778191,-8.33379796376261e-06,-2.26524432810975e-05
0.000198876869611554,0.000452506569177304,-1.09734320875243e-05,-3.12416607946665e-05
0.000196826469709067,0.000448095825201024,-1.29061107381199e-05,-3.50193453686337e-05
0.000196683418553079,0.000452113178498338,-1.34522070932993e-05,-3.14613722422177e-05
0.000197386753403351,0.000458610085166102,-1.23695821514503e-05,-2.33498345193425e-05
0.000199520599813497,0.00046615603364444,-1.03620871960761e-05,-1.58574104603497e-05
0.00020081998114705,0.000470411805535066,-8.64703439059339e-06,-1.17833346657925e-05
0.000201392185771,0.000470018414856101,-7.88360339030903e-06,-1.0786229375004e-05
0.000201809418309296,0.000468945531186195,-7.81532808712127e-06,-1.16754109545982e-05
0.000201332581122671,0.000467169312666018,-7.88325005500544e-06,-1.31502177930588e-05
0.000200760376498722,0.000467085866158358,-7.60764270762934e-06,-1.28490348496697e-05
0.000202596199667227,0.000471079377596341,-6.28415018074171e-06,-8.13342117543501e-06
0.000205612194872629,0.000479388265573279,-3.13393574974933e-06,1.34732874875125e-06
0.00020955802259195,0.000491964846370509,1.56875870160172e-06,1.28620409115806e-05
0.000213408482873945,0.000500488311081428,5.92814623297901e-06,2.27611531658772e-05
0.000215768826947738,0.000505387813173998,7.8496410097425e-06,2.90645643691006e-05
0.000214672101418501,0.000509500533908637,7.23472640536247e-06,3.23952007383609e-05
0.000213134301491636,0.000512111217505408,6.31709079880361e-06,3.52141836973931e-05
0.000213575375889264,0.000514364273212211,7.53581707749401e-06,3.96006325836288e-05
0.000218129171021531,0.000519883663647393,1.11934071513704e-05,4.46535092210001e-05
0.00022118092901593,0.000521504910081918,1.52811862304814e-05,4.65381081666384e-05
0.000222337259193495,0.000516808063793663,1.74144352139065e-05,4.24148622569529e-05
0.000222361101052827,0.00050734284563916,1.68037842439887e-05,3.39900878617636e-05
0.000219070924465115,0.000498724013490916,1.45357239614055e-05,2.57509035198737e-05
0.000216984761773632,0.000493168860266737,1.23024697055185e-05,1.99820966194248e-05
0.000214731706066829,0.000488054781440185,1.10037072206533e-05,1.52193743305879e-05
0.000213646901467258,0.000480604200399172,1.03034997811474e-05,9.42688475145504e-06
0.000212478650360027,0.000473630456544784,9.12024310694015e-06,2.41581064400892e-06
0.000209844124903925,0.000467050103369361,6.50320637561643e-06,-5.46825329462275e-06
0.000203943264719442,0.000455534485312372,2.435989848299e-06,-1.47056058485937e-05
0.000200164330015441,0.000444662597457325,-1.97020599344449e-06,-2.51530487673893e-05
0.000196862232498064,0.000436091449027744,-5.34224495322548e-06,-3.49539417658257e-05
0.000193727027996005,0.000427305723864181,-7.33022673631385e-06,-4.26224093961795e-05
0.000191652786234187,0.000420904184633743,-8.74381246459103e-06,-4.87840626379025e-05
0.000190567981634616,0.000415456319776554,-1.02587491211739e-05,-5.37744484774364e-05
0.000188982497989088,0.000414538408192301,-1.16361145831088e-05,-5.47701660721432e-05
0.000186789046930614,0.000421702886921339,-1.27517114572335e-05,-4.83627378750266e-05
0.000184643279590802,0.000432539011987389,-1.45484640367817e-05,-3.61245095348442e-05
0.000182259093657678,0.000443625476576416,-1.76679119969495e-05,-2.47407796203482e-05
0.000178384791516351,0.000450825718094451,-2.05027979141587e-05,-1.92796384992741e-05
0.000178122531063708,0.000450754192516458,-2.03126782674488e-05,-1.81700373225976e-05
0.000182247172728012,0.000452506569177304,-1.66452584822661e-05,-1.61909926036523e-05
0.000186026107432014,0.000458347824713458,-1.21003342382345e-05,-1.07842742950677e-05
0.000189220916582401,0.000466334847589424,-8.97256045628671e-06,-3.58215082343093e-06
0.000191557418796862,0.000472378758929894,-6.64279518917716e-06,3.17581358664759e-06
0.000194263469830958,0.00047911408419097,-3.39652651796637e-06,9.43618663462471e-06
0.000198197376620613,0.000486171274553017,6.86912110074147e-07,1.65579932291503e-05
0.00020256043687823,0.000496196776401804,4.37885293187929e-06,2.53835637189856e-05
0.000205290329771658,0.000505626231767311,7.65544535324748e-06,3.52205141765953e-05
0.000208187115680403,0.000513708622080602,1.11713498848159e-05,4.34941678550733e-05
0.00021187068294708,0.000518417389298522,1.39723322828284e-05,4.65664219019876e-05
0.000212359441063371,0.000514173538337561,1.43024013747989e-05,4.26082074408514e-05
0.000210332883020215,0.000505852729430957,1.28784655643518e-05,3.41016105041353e-05
0.000210022938848909,0.000498724013490916,1.27803130911649e-05,2.60481677855644e-05
0.000213742268904583,0.000493979483483999,1.50987190580856e-05,2.10453176755301e-05
0.000215005887449139,0.000490820437122609,1.69228228383561e-05,1.72688213736967e-05
0.000213110459632305,0.000485706358296058,1.51802477097354e-05,1.17245581951609e-05
0.000208961976108669,0.000478303460973707,1.06843440868964e-05,3.94928398108486e-06
0.000205600273942964,0.000470852879932694,6.4544408433212e-06,-4.36400736646203e-06
0.000202572357807896,0.000464201001179278,3.37823595146207e-06,-1.17972038293772e-05
0.000198364269635932,0.000457680252652183,-8.62033226600715e-08,-1.77235313172696e-05
0.000195419800008523,0.000455951717850668,-4.45856126202062e-06,-2.1466039979518e-05
0.000192499172240446,0.000454711941165444,-7.96148870627795e-06,-2.27582648381863e-05
0.000190424930478628,0.000454556969079791,-9.14437804000208e-06,-2.28294058881496e-05
0.000191843521108837,0.000454998043477419,-9.00157466981045e-06,-2.38096137661956e-05
0.000191378604851878,0.000452101257568673,-9.66345464348632e-06,-2.71325918358556e-05
0.000189614307261366,0.000446546104344493,-1.20085824722237e-05,-3.29856001789989e-05
0.000186467181829642,0.000439608123279102,-1.51698592951219e-05,-4.03123668327532e-05
0.000184762488887458,0.000434613253749207,-1.76850515204409e-05,-4.63901759830469e-05
0.000183951865670196,0.000433194663118998,-1.87666307980123e-05,-4.78248890277666e-05
0.000184333335419496,0.000438118007070899,-1.90036855919906e-05,-4.38685733216754e-05
0.000183987628459193,0.000443851974240063,-1.98457649759467e-05,-3.78194637738611e-05
0.000182247172728012,0.000449585941409227,-2.16375651166113e-05,-3.29351939399595e-05
0.000182843219211293,0.000456023243428662,-2.22754720464516e-05,-2.76375238501023e-05
0.000185942660924355,0.000465309647638181,-1.89689058236149e-05,-1.74427148530141e-05
0.000194299232619955,0.000481653242209747,-1.15452348083063e-05,-1.5225929400035e-06
0.000203442585673486,0.000500392943644103,-2.85340714277898e-06,1.56502130315298e-05
0.000210833562066171,0.000513863594166255,4.40648986559522e-06,2.98186930372175e-05
0.000217032445492294,0.00052462819365431,9.88290133690417e-06,4.10347134586639e-05
0.00022224189175617,0.000535833867539994,1.40069675203116e-05,5.07252982052485e-05
0.000223326696355742,0.000542092355614445,1.58764261702255e-05,5.74654471379128e-05
0.000222849859169117,0.000542545350941739,1.43134709054262e-05,5.82568689466435e-05
0.000219988836049368,0.000537502797693181,1.02936417858847e-05,5.24612401365259e-05
0.000215470803706098,0.000526320965666828,6.66793369027172e-06,4.20670724431054e-05
0.000215578092073088,0.000514161617407895,5.42681896070734e-06,2.92051748861345e-05
0.000216102612978376,0.000499963790176141,6.23935525872184e-06,1.5869809784045e-05
0.000218546403559828,0.000489807158101032,7.59473576045639e-06,5.25065192867959e-06
0.000219690812807728,0.000484299688595515,8.40873899449527e-06,3.70166403841335e-07
0.000218665612856484,0.000484359293243843,8.51985491739137e-06,1.0486314083961e-06
0.000220835222055627,0.000488626986064135,8.52344920838677e-06,4.43933642875553e-06
0.00022156239876523,0.000492060213807834,9.23620228462262e-06,8.95122685763256e-06
0.000221526635976233,0.000497019320548732,1.06077093671844e-05,1.53169716514786e-05
0.000223898900979692,0.000505793124782629,1.11582380890674e-05,2.28433454897612e-05
0.000222229970826505,0.000509524375767969,9.27104232770261e-06,2.70819746680043e-05
0.000217103971070288,0.000504064589981114,5.14544549490278e-06,2.38071374263432e-05
0.000213742268904583,0.000495564967129527,8.20329578258456e-07,1.4753212647401e-05
0.000211095822518815,0.00048766139076122,-1.76431597262035e-06,7.06132977661785e-06
0.000210833562066171,0.000486016302467364,-2.13781264579583e-06,6.04346847387832e-06
0.000211799157369087,0.00048766139076122,-9.87633379382493e-07,9.37786440888233e-06
0.000213301194506955,0.000487458734956904,5.24108178426125e-07,9.48250775180482e-06
0.000214350236317529,0.000480222730649872,1.15590754671341e-06,1.653299599045e-06
0.000213062775913642,0.000467014340580364,4.62403188471978e-07,-1.07432196045327e-05
0.000212204468977718,0.000454616573728119,-3.87666271052817e-07,-1.94938788317018e-05
0.000213146222421302,0.000457394150340208,3.27174282928563e-07,-1.95999678952452e-05
0.000215101254886464,0.00046250822916676,2.57514148283616e-06,-1.35791274128956e-05
0.00021589995717406,0.000464963940677878,4.27231593252642e-06,-7.94712673234445e-06
0.000216519845516672,0.000467014340580364,3.78349202224102e-06,-6.58047014616668e-06
0.000213491929381605,0.000465941456910459,1.77668007678974e-06,-8.34129361157757e-06
0.000211012376011156,0.000461614159441838,-1.16206168380763e-08,-1.03346253551309e-05
0.000210797799277174,0.000459992913007314,-8.64554844551095e-07,-1.16490434008604e-05
0.000210165990004897,0.000458014038682821,-1.09968658713566e-06,-1.32370280398341e-05
0.000209200394701981,0.000455975559709999,-8.81150502937428e-07,-1.53179626735716e-05
0.000210356724879546,0.000453412559831891,-6.34689522499697e-08,-1.63367651607956e-05
0.000211775315509755,0.000455355671367387,1.38098542427995e-06,-1.45946577396459e-05
0.000212943566616986,0.000459110764212058,3.69914496369786e-06,-1.01055768218139e-05
0.000216507924587007,0.000464284447686937,7.39623839257076e-06,-4.51620072846381e-06
0.00022099019414128,0.000468826321889539,1.17923924119573e-05,2.9512748137926e-07
0.000222492231279148,0.000472021131039925,1.42647847891599e-05,3.13937878603883e-06
0.000220537198813987,0.000470328359027407,1.25676162332828e-05,3.57654638347185e-06
0.000215685380440079,0.000470137624152757,7.79025501316539e-06,1.98892504574272e-06
0.000210487855105868,0.000467932252164617,3.50708116441091e-06,-3.18715264460282e-07
0.000208723557515356,0.000464880494170218,1.83036250413478e-06,-1.97271405596149e-06
0.000208234799399066,0.000463748005851984,1.64571927085181e-06,-2.92701032168125e-06
0.000206792366909526,0.00046405795002329,9.61820434570813e-07,-4.21789222491224e-06
0.000205194962334333,0.000461709526879163,-4.98564363574846e-07,-5.72163184121197e-06
0.000203609478688805,0.000461649922230835,-1.68241328347728e-06,-5.25637993363407e-06
0.000203084957783518,0.000465905694121462,-1.86075753519148e-06,-1.39855928797781e-06
0.000203406822884489,0.000471985368250928,-9.72417282194127e-07,3.44165436385332e-06
0.000205004227459683,0.000473034410061503,6.92269416481445e-07,4.79568211405676e-06
0.000205802929747279,0.000468313721913917,2.1242517149498e-06,1.12126151568282e-06
0.000205612194872629,0.000464189080249612,1.65837490067254e-06,-5.03991542758502e-06
0.000201177609037018,0.000458252457276133,-1.47290271427087e-06,-1.13321119025272e-05
0.000197315227825357,0.000450646904149467,-6.05875383277966e-06,-1.8337131905872e-05
0.00019237996294379,0.00044331553240511,-1.03677884100346e-05,-2.63467903520228e-05
0.000187945377108179,0.00043917896981114,-1.42983680706586e-05,-3.19341977075112e-05
0.000183427344764909,0.000439441230263783,-1.88883891318815e-05,-3.11035664125681e-05
0.00017855168453167,0.000447106388038778,-2.37493933943153e-05,-2.50095180768757e-05
0.000175428400959277,0.000452590015684963,-2.63421059301429e-05,-1.92242742442109e-05
0.000177192698549789,0.000455367592297053,-2.45249403918602e-05,-1.72260863017614e-05
0.000182557116899318,0.000456595448052612,-1.91840704784168e-05,-1.76952681842249e-05
0.000188112270123498,0.000455248383000397,-1.3648899124955e-05,-1.86877974446016e-05
0.000190567981634616,0.000453865555159185,-1.07460790832565e-05,-2.07505803041486e-05
0.000190603744423613,0.000451493290155726,-1.0844996803338e-05,-2.3860261317165e-05
0.000189292442160394,0.000452971485434263,-1.23666103898743e-05,-2.44388679335097e-05
0.000188267242209151,0.000457799461948839,-1.32980943731013e-05,-1.88698381533334e-05
0.000189256679371397,0.000468122987039267,-1.20760813500505e-05,-8.55609969172185e-06
0.000193429004754365,0.000481343298038441,-8.02704894297883e-06,1.6969048525338e-06
0.000200164330015441,0.000489282637195744,-2.04172467964588e-06,9.47437472584496e-06
0.000204992306530017,0.000494253664866308,3.32621466805023e-06,1.56669131932677e-05
0.000206887734346851,0.000500667125026412,5.56769312756396e-06,2.00972171092587e-05
0.000207424176181804,0.000503349334201177,4.62558059947833e-06,2.034623559067e-05
0.000205469143716642,0.00049716237170472,3.04380137241941e-06,1.62355754886343e-05
0.000204861176303695,0.00049400332534333,3.22480704343591e-06,1.20773902482253e-05
0.000208365929625388,0.000496554404291773,5.13943066064479e-06,1.21451987756214e-05
0.000210666669050853,0.000500154525050791,7.41760907697789e-06,1.62378087719178e-05
0.000212407124782033,0.000505721599204636,9.96742226307752e-06,2.21499620685235e-05
0.000218153012880863,0.000515496761530445,1.41709643036544e-05,3.03390689239425e-05
0.000224030031206014,0.000528728993459284,2.05272667655965e-05,4.25596255614523e-05
0.000231575979684352,0.00054180625330247,2.73558182234074e-05,5.65562302050665e-05
0.000236189379464947,0.000552189383041226,3.21999121350686e-05,6.57695606842196e-05
0.000238537802609074,0.000552248987689554,3.35790822076328e-05,6.53544036140939e-05
0.000236141695746284,0.000543749364837966,3.10915505384338e-05,5.64666725594506e-05
0.000229656710008187,0.000530982049166086,2.50006760330493e-05,4.40244274079313e-05
0.000222921384747111,0.000520098240381374,1.65444103092032e-05,3.21519416800153e-05
0.000213730347974917,0.000510728389664196,7.79013900305125e-06,2.23295620141948e-05
0.000205695641380289,0.000500881701760393,1.35663650937157e-07,1.37604169972766e-05
0.0002006292462724,0.000493180781196402,-6.6968406998282e-06,4.23599728115153e-06
0.00019390584194099,0.000481176405023122,-1.34694026960798e-05,-7.75069610978997e-06
0.000186634074844961,0.000467133549877021,-1.9724473657411e-05,-2.03924282480982e-05
0.000184226047052505,0.000459289578157042,-2.41359223749803e-05,-2.92581726765288e-05
0.000182044516923697,0.000458014038682821,-2.61635021515835e-05,-3.16992874855811e-05
0.00018181801926005,0.000458490875869446,-2.62677284853958e-05,-2.93493774628947e-05
0.00018421412612284,0.000462627438463416,-2.45293341716307e-05,-2.52813573077889e-05
0.000189042102637416,0.000468504456788567,-2.02429743998327e-05,-2.0438070850211e-05
0.000195944320913811,0.000474405316973049,-1.34505600789168e-05,-1.46172280306855e-05
0.000203418743814155,0.000477826623787083,-6.13259457346644e-06,-9.38418349452463e-06
0.000209248078420644,0.000479960470197229,-9.61672039948589e-07,-7.26904578426547e-06
0.000211429608549452,0.000481116800374794,1.19235136853728e-06,-8.28688275961692e-06
0.000212800515460999,0.000477743177279423,2.01476056180841e-06,-9.43541666108705e-06
0.000214374078176861,0.000477957754013404,3.69576331161552e-06,-8.00663610624233e-06
0.000217652333834906,0.000483584432815577,6.31157016493257e-06,-4.18159981409381e-06
0.000219285501199096,0.000486838846614292,7.71963326421337e-06,-5.98957789105814e-07
0.000217556966397581,0.000484943418797458,6.22612509914055e-06,-6.00271215111054e-07
0.000214958203730476,0.000479507474869935,2.81697333376444e-06,-6.11053606845433e-06
0.000212419045711699,0.00047135355897865,1.47096243570202e-07,-1.51727601186222e-05
0.00021187068294708,0.000463342694243353,-2.58218817628838e-07,-2.18784761901925e-05
0.000213706506115586,0.000463700322133322,1.20304190540071e-06,-2.11272682833274e-05
0.000216698659461657,0.000470328359027407,3.99204342866123e-06,-1.39043675080229e-05
0.000221800817358542,0.000478446512129695,8.39565015304908e-06,-5.952662884316e-06
0.000226259245053485,0.000483548670026581,1.39816212661945e-05,-9.64283048025102e-07
0.000231790556418333,0.000485253362968764,1.85180542559757e-05,2.68195718871948e-06
0.000233781351672491,0.000490498572021638,1.99823350612598e-05,7.80236659539597e-06
0.000232267393604958,0.000497174292634385,1.90469267259714e-05,1.35470881021905e-05
0.000230860723904414,0.000497865706554991,1.80308358895298e-05,1.62792083409688e-05
0.000231730951770005,0.000495326548536214,1.7584381748042e-05,1.36994423093178e-05
0.000229704393726849,0.000487828283776539,1.59958372422489e-05,6.47483743604457e-06
0.000225377096258229,0.000477838544716748,1.19913496229712e-05,-3.20343116147007e-06
0.000220072282557027,0.000467240838244011,6.6077236125446e-06,-1.3329224853946e-05
0.000215363515339107,0.000456786182927262,1.48418846505713e-06,-2.30068050998171e-05
0.000210690510910184,0.000447011020601453,-3.40399181990725e-06,-3.24092563962918e-05
0.000204253208890749,0.000438582923327859,-9.05492892486084e-06,-4.10172803074379e-05
0.000197982799886632,0.000433015849174014,-1.52724549437117e-05,-4.5939468629085e-05
0.000193345558246705,0.00043313505847067,-2.06785385920109e-05,-4.41708815215714e-05
0.000189507018894375,0.000441622760392592,-2.47414060743097e-05,-3.73738145765598e-05
0.000183975707529527,0.000445318248588934,-2.83493475786501e-05,-3.1732468966364e-05
0.000181388865792088,0.000445890453212884,-3.19259625986481e-05,-3.08886628589297e-05
0.000180590163504491,0.000446081188087534,-3.41628038410424e-05,-3.10836475454969e-05
0.000178670893828326,0.00044993164836953,-3.35683265737994e-05,-2.60021747421289e-05
0.000182044516923697,0.000460910824591567,-3.05620438138668e-05,-1.47824182275868e-05
0.000186967860875598,0.000473415879810803,-2.68156761030905e-05,-1.90401757601843e-06
0.000190305721181972,0.000485515623421408,-2.27194320032032e-05,9.83701431536644e-06
0.000194978725610895,0.000495779543863508,-1.68708253746077e-05,2.21294740410772e-05
0.000204420101906067,0.000510525733859881,-8.5098908228576e-06,3.6464844894692e-05
0.00021339656194428,0.000525271923856254,7.8973671558561e-07,5.05385576585809e-05
0.000220787538336965,0.000533890756004498,8.91583276634588e-06,6.12520575601502e-05
0.000228154672870318,0.00054112676031153,1.59174132375936e-05,6.86411450567297e-05
0.000235211863232366,0.000547504457682637,2.3505931757255e-05,7.4440909364644e-05
0.000243532672138969,0.000550580057536367,3.20273188301291e-05,7.83297229425541e-05
0.000251209750843629,0.000549209150624821,3.93196161357478e-05,7.79546332411945e-05
0.000254058853033713,0.000543284448581007,4.29385423935822e-05,7.1995023341467e-05
0.000252997890293472,0.00053230527235897,4.24731423108268e-05,6.13137517567143e-05
0.000250649467149345,0.000518441231157853,3.92557772535773e-05,4.75403431601505e-05
0.000245690360408447,0.000502204924953277,3.48089933164389e-05,3.24152994797914e-05
0.000239920630450286,0.000488030939580854,3.01494183780633e-05,1.84961545134004e-05
0.000235950960871634,0.000478184251677051,2.55929241504136e-05,8.41861156343378e-06
0.000230741514607758,0.000471568135712632,2.03486016403782e-05,2.2819821644741e-06
0.000223016752184436,0.000465154675552528,1.30912789233181e-05,-3.17494194287922e-06
0.000212836278249996,0.000456917313153584,3.96728191441242e-06,-1.13256970935191e-05
0.000205171120475001,0.000446820285726803,-4.54512700902918e-06,-2.16434614859094e-05
0.000200045120718784,0.00043746235593929,-9.90784745760453e-06,-3.01741202565735e-05
0.000195980083702808,0.000432920481736689,-1.23621562728496e-05,-3.46293770190625e-05
0.000193977367518983,0.000428736235424056,-1.44612564208892e-05,-3.79772163441018e-05
0.000191545497867197,0.000421834017147661,-1.79929051479777e-05,-4.53558188139876e-05
0.000186133395799005,0.000409638906099731,-2.24547746829175e-05,-5.72646650425659e-05
0.000181150447198775,0.000398945832189669,-2.64404958521531e-05,-6.73799588967885e-05
0.000178980837999632,0.000397133850880495,-2.91787981594459e-05,-6.82703073727161e-05
0.00017884970777331,0.000408160710821194,-3.03279965007202e-05,-5.8605281386543e-05
0.000177848349681398,0.000422120119459636,-2.94587339178518e-05,-4.382005882251e-05
0.000180554400715494,0.000434660937467869,-2.65938990199121e-05,-3.04694593616611e-05
0.000185883056276027,0.000443947341677388,-2.26323545365885e-05,-2.12079465168514e-05
0.000189459335175713,0.00045129063435141,-1.84906182113121e-05,-1.46783004897983e-05
0.000192594539677771,0.000456941155012915,-1.42035494729606e-05,-8.45339998476547e-06
0.000197982799886632,0.000462782410549069,-9.46835037334467e-06,-1.69972387548239e-06
0.000203311455447164,0.000468790559100542,-4.64756937150344e-06,3.90703603896085e-06
0.000207066548291835,0.000471615819431294,-4.03365742049852e-07,5.71287126876568e-06
0.000210416329527875,0.000468134907968933,3.49603576409055e-06,3.55310238907193e-06
0.000215244306042451,0.000466024903418118,8.00044780848758e-06,1.47284173461193e-06
0.000221014036000612,0.000469553498599142,1.30618860234458e-05,4.23276892188139e-06
0.000224363817236651,0.000476539163383196,1.69529188788205e-05,1.16710550293433e-05
0.000225090993946254,0.000483620195604574,1.81153109498429e-05,1.82649772124646e-05
0.00022453071025197,0.000484073190931868,1.71978018818165e-05,1.91413887666616e-05
0.000224542631181635,0.000479447870221607,1.61346838610705e-05,1.49763655008511e-05
0.000222647203364802,0.000476002721548243,1.52954126477233e-05,9.95282916726266e-06
0.000220167649994352,0.000472641019382538,1.30247095358261e-05,6.65505228287128e-06
0.000216937078054969,0.000468719033522548,8.6654974012919e-06,4.77345585902598e-06
0.000212919724757655,0.000469684628825464,4.55938745716651e-06,3.51461310736968e-06
0.000211262715534134,0.000469517735810145,3.48459218960966e-06,2.85619078431368e-06
0.000212883961968658,0.000468242196335923,4.93647799278857e-06,2.67979141520551e-06
0.000214564813051511,0.000467944173094283,5.85343550404027e-06,2.73177736373325e-06
0.000213825715412242,0.00047067406598771,4.77485626858602e-06,3.60559155952527e-06
0.000211370003901124,0.000473237065865819,3.22071364262879e-06,6.07553656834541e-06
0.000211703789931762,0.000475096730893655,2.69620471278657e-06,9.28958268182713e-06
0.000212049496892065,0.000478124647028723,2.5081600890576e-06,1.13094378508803e-05
0.000210738194628846,0.000479316739995285,1.48200909725968e-06,1.17300648931013e-05
0.000209403050506297,0.000479805498111576,-8.73728486608463e-08,1.19592749675135e-05
0.000208282483117728,0.00047903063768331,-1.59813567264626e-06,1.23489278607056e-05
0.000206267846004238,0.000478899507456989,-3.74741181237637e-06,1.10676534118536e-05
0.000202965748486861,0.000475740461095599,-7.43901746345468e-06,7.03710471397863e-06
0.000198292744057938,0.000470328359027407,-1.22610031834774e-05,2.15497441537582e-06
0.000193023693145734,0.000466382531308087,-1.7481847638957e-05,-1.28844787206204e-06
0.000187826167811523,0.000465321568567846,-2.32900025340741e-05,-4.13006986942389e-06
0.000182151805290687,0.00045992138742932,-2.93432332759797e-05,-8.93591783044206e-06
0.000177896033400061,0.000453209904027575,-3.33340602575971e-05,-1.55374673770551e-05
0.000178420554305348,0.000449430969323574,-3.31925034290547e-05,-2.03542833862869e-05
0.000182402144813665,0.000448656108895308,-2.99919647954813e-05,-2.06170008478017e-05
0.000185263167933414,0.000452220466865329,-2.64946344915381e-05,-1.73983034052427e-05
0.000189399730527385,0.00045684578757559,-2.33046939646213e-05,-1.36319465172207e-05
0.000194144260534302,0.000459301499086708,-1.86615312952353e-05,-1.05471551741883e-05
0.000200760376498722,0.000462937382634722,-1.16896261753556e-05,-7.04574256462238e-06
0.000209951413270915,0.000469458131161817,-3.4634047103875e-06,-1.52099665494013e-06
0.000218641770997153,0.00047758820519377,5.14123282124979e-06,6.81481081941361e-06
0.000227785124050684,0.000488269358174167,1.42477409897482e-05,1.76219347277736e-05
0.000236499323636253,0.000499641925075169,2.33441154242961e-05,2.91363395161026e-05
0.000245714202267778,0.000510513812930215,3.11640752393577e-05,3.83650835120704e-05
0.000252294555443201,0.000513970882533245,3.76710754126977e-05,4.27150597066317e-05
0.000257158294746774,0.000512230426802065,4.38602687731944e-05,4.19170198065711e-05
0.000263786331640859,0.000510978729187174,4.89360010125569e-05,3.81551714351244e-05
0.000265371815286387,0.000506079227094604,5.0110158086555e-05,3.4239276623889e-05
0.000261139885255091,0.000502681762139902,4.63442381444413e-05,3.15624059336481e-05
0.000254380718134684,0.000501537352892003,4.01446812077699e-05,2.93656813719656e-05
0.000250089183455061,0.000498819380928241,3.43017298432471e-05,2.56523761536493e-05
0.000244617476738541,0.000490450888302975,2.87565981392828e-05,1.90045310071174e-05
0.00023683310966689,0.000481951265451387,2.20864117289243e-05,9.65145813258108e-06
0.000229942812320162,0.000471997289180594,1.41758254993681e-05,-1.29430685968963e-06
0.000221812738288208,0.000459587601398683,5.73936787798022e-06,-1.31161478800809e-05
0.000212836278249996,0.000447058704320115,-3.05223740980013e-06,-2.51397941340701e-05
0.00020465852049938,0.000437760379180931,-1.15157828098968e-05,-3.55379409713102e-05
0.000198161613831616,0.000431525732965811,-1.75058684589889e-05,-4.22356891100631e-05
0.00019708873016171,0.000426983858763209,-1.97050348974868e-05,-4.55654975661725e-05
0.000196766865060739,0.000425088430946376,-1.98893203695799e-05,-4.83542420116126e-05
0.000195276748852536,0.000421822096217996,-2.09302091698387e-05,-5.21498865214368e-05
0.000193047535005065,0.00041892531030925,-2.34224909648016e-05,-5.46925221539794e-05
0.00019131900020355,0.000420975710211737,-2.61994882505253e-05,-5.27184799991951e-05
0.000187659274796204,0.000427794481980472,-2.90581324879551e-05,-4.62205649504786e-05
0.000184464465645818,0.000436413314128716,-3.23524320607642e-05,-3.79650167621751e-05
0.000183010112226612,0.000444698360246322,-3.43897609627679e-05,-2.94747454950096e-05
0.00018546582373773,0.000454914596969759,-3.21854014010008e-05,-1.99097409566415e-05
0.0001918912048275,0.000465142754622862,-2.54009464285259e-05,-9.00880790460108e-06
0.0002002477765231,0.000476408033156874,-1.7252862915694e-05,1.38390011216587e-06
0.000207424176181804,0.00048526528389843,-1.06166333050984e-05,9.80894428920388e-06
0.000213134301491636,0.000492322474260478,-5.06722327003097e-06,1.73352667442293e-05
0.000218796743082806,0.000500416785503434,1.14213043330175e-06,2.56901536855457e-05
0.000226211561334822,0.000510501892000549,7.70405388710547e-06,3.43364449813484e-05
0.000231134905286724,0.000517118007964969,1.23310128690203e-05,4.08475211999662e-05
0.000231838240136995,0.000518572361384175,1.34802252127008e-05,4.35247358883194e-05
0.000230658068100099,0.00051809552419755,1.17898434646278e-05,4.22967770628522e-05
0.000228226198448312,0.000514662296453851,9.04425716390823e-06,3.74040385729211e-05
0.00022616387761616,0.000505459338751992,6.56135698532356e-06,2.86548384960865e-05
0.000223565114949054,0.000491297274309234,4.58185761724568e-06,1.63917529439313e-05
0.000222599519646139,0.000480270414368535,2.67965924779019e-06,2.46066394863334e-06
0.000220918668563287,0.000467431573118661,5.86811899472571e-07,-1.0233780381417e-05
0.00021867753378615,0.000457501438707199,-1.21614752847617e-06,-1.90374991042845e-05
0.000218892110520131,0.000454056290033835,-1.59289371939797e-06,-2.25519815454143e-05
0.00022137166389058,0.000457382229410543,5.54094748943109e-07,-2.08498102465045e-05
0.00022654534736546,0.000463116196579706,5.37150255785804e-06,-1.51342531649068e-05
0.000232398523831279,0.000469386605583823,1.1354077609292e-05,-7.40101980680861e-06
0.000237381472431509,0.000477385549389455,1.56560812565877e-05,-2.30633924401314e-07
0.000237643732884153,0.000483071832839956,1.59796937196975e-05,4.01760143157341e-06
0.000235140337654372,0.000482809572387312,1.26508450545097e-05,4.79427497639797e-06
0.000230360044858458,0.000481534032913091,8.26622838379607e-06,3.91036758564421e-06
0.000227940096136337,0.0004818082142954,4.87894832679042e-06,3.40245089938958e-06
0.000224864496282607,0.000481879739873394,2.19746542186051e-06,2.84319763768557e-06
0.000222611440575805,0.000478637247004345,-1.02410663628868e-06,1.66027862597376e-07
0.000218915952379462,0.000473630456544784,-4.87206994288544e-06,-4.40107731611225e-06
0.000215053571167801,0.000471639661290625,-8.55367154414553e-06,-6.94672473668345e-06
0.000212347520133705,0.000475716619236268,-1.19375886058488e-05,-3.91823309898256e-06
0.000209546101662284,0.000481569795702088,-1.53750440715185e-05,3.45480331649649e-06
0.000206494343667885,0.000488889246516779,-1.82293398220337e-05,1.05937997129901e-05
0.000206077111129589,0.000494277506725639,-1.89204153741407e-05,1.49776124673226e-05
0.000208711636585691,0.00049707892519706,-1.66999249260243e-05,1.80034575988155e-05
0.000213527692170602,0.000498938590224897,-1.26566569069588e-05,2.10986038817067e-05
0.000216913236195638,0.000501513511032671,-8.83116443333845e-06,2.22579284824178e-05
0.000219595445370403,0.000496983557759735,-6.61845618783717e-06,1.83792885795516e-05
0.000220918668563287,0.000488770037220123,-5.59099338364151e-06,1.02706293084518e-05
0.000223720087034707,0.00048210623753704,-3.47434080361286e-06,3.26995512426131e-06
0.000228691114705271,0.000480031995775222,1.81314605145493e-06,2.1549248160172e-06
0.000236213221324278,0.000485432176913749,9.16204022780796e-06,6.25873347540583e-06
0.000241851821056117,0.000488102465158848,1.42376848203761e-05,1.02863338678645e-05
0.000241756453618792,0.00048804286051052,1.38706270352846e-05,9.59122882962496e-06
0.000237929835196128,0.000482010870099716,9.88365155710306e-06,4.0931919041614e-06
0.000234496607452429,0.000475668935517605,7.01561695209585e-06,-2.73577137145661e-06
0.000235927119012303,0.000469827679981451,7.57307647233462e-06,-7.77250859360122e-06
0.000239062323514362,0.000467312363822005,9.98513363414247e-06,-1.04486546475555e-05
0.000240278258340255,0.00046645405688608,1.22986011002209e-05,-1.14889909149012e-05
0.000242817416359032,0.000466740159198055,1.4623833491416e-05,-1.07740931764855e-05
0.000246500983625709,0.000469386605583823,1.73912453455444e-05,-7.58341340300575e-06
0.000248634830035855,0.00047489407508934,1.92655747115654e-05,-2.83072588970272e-06
0.00024614335573574,0.000477468995897114,1.82797432292912e-05,2.02103783725216e-07
0.000242888941937026,0.000474929837878337,1.40832412694266e-05,-1.60365710662312e-06
0.000237667574743484,0.000468695191663217,8.02581491263213e-06,-8.11687041960546e-06
0.000230312361139796,0.000461328057129863,1.67299082065177e-06,-1.61085629690852e-05
0.000224161161432335,0.00045377018772186,-4.02062484626766e-06,-2.23676055836937e-05
0.000220632566251312,0.000450074699525517,-8.60491441400999e-06,-2.58534038016173e-05
0.000217032445492294,0.000450050857666186,-1.17884510443788e-05,-2.69116988684982e-05
0.000215542329284092,0.000450539615782476,-1.30525720913716e-05,-2.60051111430422e-05
0.000216126454837707,0.000450503852993479,-1.19154233895665e-05,-2.43062179715993e-05
0.000219333184917759,0.000452113178498338,-9.33030126874196e-06,-2.4193007405521e-05
0.000220370305798668,0.000449967411158527,-8.19848750573315e-06,-2.69086640123717e-05
0.000216877473406641,0.000444400337004682,-1.08076255838111e-05,-2.97452156851756e-05
0.000211787236439421,0.000447702434522059,-1.57648717483484e-05,-2.77810645412254e-05
0.000209152710983319,0.000457370308480877,-1.92498731942391e-05,-1.94563987869343e-05
0.000207686436634447,0.000465142754622862,-1.95257652180869e-05,-8.81319516530634e-06
0.000208449376133047,0.000474000005364418,-1.82312176132216e-05,-7.9100917471643e-07
0.00021080972020684,0.000480520753891513,-1.68138270268881e-05,4.44132723236837e-06
0.000212311757344708,0.000485110311812777,-1.42191378864103e-05,1.06610648656694e-05
0.000216794026898982,0.000494015246272996,-9.39994587511249e-06,1.99765505361105e-05
0.000222349180123161,0.000505280524807008,-3.69074789871533e-06,3.03857195909e-05
0.000227701677543025,0.000514376194141876,1.39609612793387e-06,3.90152059448788e-05
0.000231838240136995,0.000518381626509525,6.82765023268655e-06,4.54009266558623e-05
0.000238978877006702,0.000524807007599295,1.39310668481118e-05,5.03230447922454e-05
0.000245976462720422,0.0005277872400157,2.08608455537326e-05,5.29900957204372e-05
0.000248301044005218,0.000524401695990664,2.40210091994314e-05,5.12281297333142e-05
0.000246727481289356,0.000518071682338219,2.26864126651352e-05,4.41577567477678e-05
0.000243318095404988,0.000507044822397519,1.97996268176075e-05,3.3419255146547e-05
0.000241494193166148,0.000495290785747217,1.81825734968394e-05,2.16514750386099e-05
0.000241458430377151,0.000483763246760562,1.80479931685064e-05,1.05456831018203e-05
0.000240206732762261,0.00047374966584144,1.82966861736683e-05,5.58124916918802e-07
0.000239944472309618,0.000464594391858243,1.81247691559225e-05,-8.08204500816381e-06
0.000239527239771321,0.000458753136322089,1.68715639613218e-05,-1.46427170291609e-05
0.000234937681850057,0.000454080131893166,1.4041037749256e-05,-1.8365528150979e-05
0.000230479254155115,0.000452661541262957,1.00678125768384e-05,-1.96050887151558e-05
0.00022635461249081,0.000452125099428004,5.81047119572727e-06,-2.00470621414817e-05
0.000222396863841824,0.000451493290155726,1.22074019204282e-06,-2.12730879960578e-05
0.000214684022348167,0.00044810774613069,-3.9495220409454e-06,-2.32210660457599e-05
0.000210678589980518,0.000446939495023459,-8.21689805048903e-06,-2.45680695422035e-05
0.000210666669050853,0.000447249439194765,-9.31602120756806e-06,-2.44903456635908e-05
0.000210678589980518,0.000447821643818715,-7.6490072953293e-06,-2.34214409827895e-05
0.000210654748121187,0.00044859650424698,-6.6951499368142e-06,-2.22748685003285e-05
0.000209105027264656,0.000448572662387649,-8.9263950479682e-06,-2.17876614036461e-05
0.00020484925537403,0.000448238876357012,-1.30426877528511e-05,-2.24336484407304e-05
0.000200426590468084,0.000446724918289478,-1.63860799589536e-05,-2.37094642915898e-05
0.000197803985941648,0.000446236160173187,-1.83654362858953e-05,-2.34188451735626e-05
0.000196588051115754,0.000449752834424545,-1.99580247416916e-05,-1.92736253446132e-05
0.000195372116289861,0.000458085564260814,-2.12622307400037e-05,-1.18788996390342e-05
0.000193798553573999,0.000464582470928578,-2.14706755224488e-05,-4.6604388795301e-06
0.000194478046564939,0.000467824963797627,-2.05292888705037e-05,7.33980872500021e-08
0.000196492683678429,0.000472080735688253,-1.90997096576629e-05,3.47504983355458e-06
0.000198054325464626,0.000476002721548243,-1.72380494106625e-05,7.39700346088327e-06
0.000199532520743163,0.000478529958637354,-1.45262749794587e-05,1.10940441792621e-05
0.000202906143838533,0.000479435949291941,-1.12628952229954e-05,1.27771135728174e-05
0.000206637394823873,0.000481116800374794,-8.29717699612043e-06,1.31340404299863e-05
0.000208055985454082,0.00048085453992215,-5.84699048404315e-06,1.46014670978902e-05
0.000209927571411584,0.000484156637439527,-3.46396899336708e-06,1.76956830538731e-05
0.000213086617772974,0.000486862688473623,-8.74090884485753e-07,2.09249413846379e-05
0.000215840352525732,0.000490021734835013,2.11852074817651e-06,2.4289199801487e-05
0.000219595445370403,0.000494921236927583,6.1908136534013e-06,2.95801227425935e-05
0.000225353254398898,0.000501537352892003,1.18535617339333e-05,3.61328344143629e-05
0.000231277956442711,0.000503647357442818,1.84092462587004e-05,3.93030665355735e-05
0.000238215937508102,0.000499510794848847,2.4472012300234e-05,3.53625188479907e-05
0.00024287702100736,0.000491178065012578,2.92876448386568e-05,2.61019026230205e-05
0.00024527312787015,0.000479853181830238,3.26986025807982e-05,1.65558619302462e-05
0.000247812285888927,0.000473022489131837,3.42743472541396e-05,9.61132978076622e-06
0.000247359290561634,0.00046836140563258,3.36345823020116e-05,4.89436520443943e-06
0.000244724765105531,0.000465083149974534,3.13496033153427e-05,1.59347190314281e-06
0.000241649165251801,0.000462412861729435,2.82942119765245e-05,-3.55652712248975e-07
0.000237727179391812,0.000460338619967617,2.42332169951112e-05,-1.62501751810987e-06
0.000232708468002586,0.000459527996750355,1.82740068195612e-05,-3.68194747340716e-06
0.000224697603267288,0.000455391434156384,1.07424104651681e-05,-7.15058402903127e-06
0.000216996682703297,0.000450384643696823,3.43481181391324e-06,-1.1264238886631e-05
0.000212657464305011,0.000447201755476103,-2.15553122478168e-06,-1.49291117296471e-05
0.000209069264475659,0.000444829490472644,-5.93180786111101e-06,-1.72631869156084e-05
0.000205981743692264,0.000445044067206625,-8.63974813636901e-06,-1.76481604842028e-05
0.000203454506603152,0.000444066550974044,-1.14293810734261e-05,-1.67756588563304e-05
0.000199961674211125,0.000445008304417628,-1.59012363520047e-05,-1.70726682060746e-05
0.00019295216756774,0.00044274332778116,-2.29825906210288e-05,-2.01042434621546e-05
0.000184810172606121,0.000437521960587618,-3.11543927306597e-05,-2.37524898118463e-05
0.000179266940311607,0.000438010718703909,-3.70106090596036e-05,-2.41200623956774e-05
0.000178670893828326,0.000441980388282561,-3.83638391906575e-05,-2.04187415457244e-05
0.000181531916948075,0.000446510341555497,-3.60832468481434e-05,-1.58451495884109e-05
0.000184631358661137,0.000449645546057555,-3.25282045577077e-05,-1.32069268393974e-05
0.000188779842184773,0.000450289276259498,-2.92043329852744e-05,-1.19481474007472e-05
0.00019237996294379,0.000452780750559613,-2.64663487492318e-05,-1.03321659691245e-05
0.000194549572142933,0.000455689457398025,-2.42913791619115e-05,-8.21815511701162e-06
0.00019679070692007,0.000457024601520574,-2.21913765094901e-05,-6.07853086906468e-06
0.000201153767177687,0.000460696247857585,-1.89345858316955e-05,-3.06713584246259e-06
0.00020667315761287,0.000466632870831065,-1.34287049273295e-05,1.92238138192425e-06
0.000214791310715157,0.000472831754257187,-5.90013996037387e-06,8.15316945709688e-06
0.00022338630100407,0.000478434591200029,2.1782568420605e-06,1.35331320858733e-05
0.000230538858803443,0.000482177763115034,9.14598146284845e-06,1.65582651746931e-05
0.000236248984113275,0.000482583074723665,1.41102638467935e-05,1.67389859341843e-05
0.000240099444395271,0.00048123600967145,1.74938311229388e-05,1.41692624432387e-05
0.000243616118646629,0.000476443795945871,2.08232959594256e-05,1.00305013761453e-05
0.000248551383528196,0.000474083451872078,2.51553096817319e-05,6.55734443628996e-06
0.000253212467027454,0.000473356275162475,2.93326206541981e-05,4.933945753816e-06
0.000254881397180641,0.000472319154281566,3.07005133109389e-05,3.87873494070867e-06
0.000253045574012135,0.000470936326440354,2.8212886312442e-05,1.76208566104098e-06
0.000248968616066493,0.000468635587014889,2.40747903563601e-05,-5.85953585633203e-07
0.000246965899882668,0.000470268754379079,2.1491960646997e-05,-9.26287366178335e-07
0.000247252002194643,0.000471329717119319,2.1288866390481e-05,8.3269892110717e-07
0.000247728839381268,0.000472760228679194,2.14644037973834e-05,1.85314990673281e-06
0.000246000304579753,0.000471890000813603,1.9611414051262e-05,-6.06679626151561e-07
0.000241935267563776,0.000466680554549727,1.5001669207238e-05,-6.48868905255321e-06
0.000235784067856316,0.000458550480517774,8.64310333037625e-06,-1.3375118369368e-05
0.00023010970533548,0.000455486801593709,2.13920325904088e-06,-1.88072942359156e-05
0.000223565114949054,0.000452375438950982,-3.46994935267068e-06,-2.21799847022705e-05
0.000220012677908699,0.000449490573971902,-8.18115921867213e-06,-2.4864675039935e-05
0.000216352952501354,0.000447070625249781,-1.23880329340101e-05,-2.81648088507045e-05
0.000212049496892065,0.000444746043964985,-1.58291312317995e-05,-3.0957168049762e-05
0.00021080972020684,0.000446140792735862,-1.77366732401676e-05,-3.0469577439629e-05
0.000210857403925503,0.000450408485556155,-1.81624685641022e-05,-2.59563560908895e-05
0.000210452092316871,0.000456929234083249,-1.82972811670146e-05,-1.98711678809377e-05
0.000209975255130247,0.000463521508188338,-1.89777713416975e-05,-1.40174141474004e-05
0.000209045422616328,0.000471758870587282,-1.96725909326438e-05,-6.47058727196568e-06
0.00020985604583359,0.000482785730527981,-1.95402034099647e-05,5.18724449536865e-06
0.000210392487668543,0.000496876269392745,-1.8560472034971e-05,1.89191378392011e-05
0.000212121022470058,0.000508928329284688,-1.66976513989709e-05,2.96807361516872e-05
0.000216329110642023,0.000514316589493548,-1.28580083671958e-05,3.54525448772434e-05
0.000222682966153798,0.000516772301004666,-6.13391613005229e-06,3.87666968346918e-05
0.000230920328552742,0.00052155259380058,2.22215907026638e-06,4.20556237695162e-05
0.000238442435171749,0.000524020226241364,9.43833599100548e-06,4.44917395114927e-05
0.000242066397790098,0.000522530110033161,1.39385449282755e-05,4.414952094618e-05
0.000244808211613191,0.000519824058999065,1.64033477160268e-05,4.05281298404778e-05
0.000246596351063034,0.000512993366300664,1.80655694501113e-05,3.38492777437839e-05
0.000246477141766378,0.000502979785381543,1.89970959485466e-05,2.43048576806923e-05
0.0002462268022434,0.000492250948682484,1.8434493564412e-05,1.32850615141751e-05
0.000243532672138969,0.000481593637561419,1.60831280440156e-05,3.31153384825563e-06
0.000240027918817277,0.000473856954208431,1.27467129150126e-05,-4.3519445812549e-06
0.000236475481776922,0.000468111066109602,1.00326762366883e-05,-1.01113202971702e-05
0.000236105932957288,0.000464153317460615,9.39616225247154e-06,-1.34636159915863e-05
0.000237178816627193,0.000464189080249612,1.09091514582761e-05,-1.27480541271739e-05
0.000238430514242084,0.000468206433546927,1.29484526783923e-05,-8.70409716205636e-06
0.000239205374670349,0.00047143700548631,1.35894619426336e-05,-5.29233957766159e-06
0.000237417235220506,0.00047067406598771,1.22753943881905e-05,-4.86290290989701e-06
0.00023403169119547,0.000470066098574763,9.78359224483703e-06,-4.94984469399755e-06
0.000231874002925992,0.000473415879810803,7.0435598702532e-06,-2.02845720388682e-06
0.00022809506822199,0.000477683572631095,4.79631550010939e-06,3.97263368413866e-06
0.0002276063101057,0.00048439505603284,3.94599331715925e-06,1.11602974882062e-05
0.000228154672870318,0.000492215185893487,4.88680237340316e-06,1.86880633459784e-05
0.000228273882166975,0.000496506720573111,6.26353866929198e-06,2.49084176168634e-05
0.000228059305432993,0.000496518641502776,5.46664211196345e-06,2.52169901396215e-05
0.000222599519646139,0.000487589865183226,8.01511623889173e-07,1.64166152963756e-05
0.000213718427045252,0.000471985368250928,-7.37818697190329e-06,2.13658291983363e-06
0.000203347218236161,0.000458014038682821,-1.7496418540482e-05,-1.03899062305211e-05
0.000193285953598377,0.000450682666938464,-2.75471519168546e-05,-1.83532548819755e-05
0.000185024749340102,0.000443685081224744,-3.50318021937757e-05,-2.41951337903072e-05
0.000181591521596403,0.000436341788550722,-3.77692756554773e-05,-2.9371393853286e-05
0.000183713447076884,0.000433957602617598,-3.57959204060696e-05,-3.23892788613304e-05
0.000187659274796204,0.00043237211897207,-3.15598093029352e-05,-3.32273093011642e-05
0.000191009056032244,0.000429642226078643,-2.73286132292953e-05,-3.42708764780088e-05
0.000194811832595577,0.000427639509894819,-2.30966480784897e-05,-3.5332495566873e-05
0.000200676929991062,0.000430607821381558,-1.77738827735226e-05,-3.26833167429373e-05
0.00020591021811427,0.000436866309456009,-1.14750202863499e-05,-2.52053512589081e-05
0.000211608422494437,0.000443446662631432,-5.38984504858247e-06,-1.68208895605644e-05
0.000217247022226275,0.000450527694852811,5.9286229136484e-08,-1.00566464036867e-05
0.00022213460338918,0.000458014038682821,5.54212902408677e-06,-1.93144113118691e-06
0.000227844728699012,0.000468230275406258,1.13405030035886e-05,9.83900898728047e-06
0.000232791914510245,0.000478553800496685,1.66551735591256e-05,2.07930726423257e-05
0.000236308588761603,0.000482904939824637,2.05607791882125e-05,2.50402422695662e-05
0.000238728537483724,0.000480234651579538,2.28391472211892e-05,2.37104190613156e-05
0.000239563002560318,0.000478220014466048,2.37560076177644e-05,2.26099941319244e-05
0.000238716616554059,0.00047911408419097,2.37953661268407e-05,2.34866680295794e-05
0.000238978877006702,0.000478518037707689,2.37958289663673e-05,2.35852645783488e-05
0.000240254416480924,0.000476551084312861,2.45940124307159e-05,2.28104756053555e-05
0.000240600123441227,0.000478220014466048,2.61195942241081e-05,2.45548338200298e-05
0.000241982951282439,0.000481855898014062,2.71932317536059e-05,2.83787285810552e-05
0.000241446509447486,0.000480353860876194,2.63587113887213e-05,2.80589340616631e-05
0.000237202658486525,0.000471591977571963,2.26386029503376e-05,1.96547564336678e-05
0.000230419649506786,0.000459122685141723,1.57661697151968e-05,6.94209621056714e-06
0.000221133245297268,0.000447094467109112,6.55965083320875e-06,-4.10273455929188e-06
0.000211811078298752,0.000438368346593877,-2.8326884991411e-06,-1.23968185663442e-05
0.000204551232132389,0.000430607821381558,-1.01008615795823e-05,-2.02144129622846e-05
0.000199723255617813,0.000422453905490274,-1.48837132030851e-05,-2.80463067452495e-05
0.00019515753955588,0.000415074850027254,-1.92192349659811e-05,-3.48553846928409e-05
0.000189745437487688,0.000408995175897788,-2.5335054078227e-05,-4.09686686706008e-05
0.000181102763480113,0.000403416180814277,-3.33197310711411e-05,-4.65149254171886e-05
0.00017346144756445,0.000400567078624194,-4.12711504699365e-05,-4.83562750044065e-05
0.000168132792003917,0.000407731557353232,-4.70394320630567e-05,-4.27399034309429e-05
0.000165462503758818,0.000417816663850347,-4.91402554838935e-05,-3.0846735946115e-05
0.000168263922230239,0.000430655505100221,-4.66791859970373e-05,-1.83462742015651e-05
0.000175762186989915,0.000440943267401652,-3.97572905203149e-05,-9.1727584169753e-06
0.000184929381902777,0.000446689155500481,-3.01352031437936e-05,-2.44279313764461e-06
0.000194287311690289,0.000452637699403626,-2.04839636585451e-05,4.24259542447504e-06
0.000203716767055796,0.000461435345496854,-1.24450337886989e-05,1.11749683911754e-05
0.000209784520255597,0.00046653750339374,-5.82705636750336e-06,1.70913720434763e-05
0.000215232385112785,0.000470447568324063,2.83630769660984e-07,2.13816044617761e-05
0.000222659124294467,0.000474560289058702,6.49477819366769e-06,2.47812480903989e-05
0.000230062021616818,0.000478887586527323,1.34529208930423e-05,2.88874182075458e-05
0.000237333788712847,0.000485146074601774,2.19960098484203e-05,3.50102555072773e-05
0.000247991099833912,0.000492060213807834,3.18008376673727e-05,4.21366350743557e-05
0.000257420555199418,0.000496256381050133,4.04404904421418e-05,4.61740715543346e-05
0.000261569038723054,0.000494599371826611,4.51465521354435e-05,4.29384394132279e-05
0.000261914745683357,0.000482058553818378,4.55893528685737e-05,3.21394907316281e-05
0.000260901466661779,0.000468707112592883,4.38562659058555e-05,1.72016527685019e-05
0.000258731857462636,0.000453281429605569,4.15454320648303e-05,1.65281927952863e-06
0.000255358234367265,0.000438976314006824,3.81142748050429e-05,-1.23944068179589e-05
0.000249540820690442,0.000429546858641318,3.26728724840015e-05,-2.27391734069616e-05
0.000244033351184925,0.000425350691399019,2.62006052658851e-05,-2.70921961063611e-05
0.000238502039820077,0.000426912333185216,2.07524459988406e-05,-2.5503183720755e-05
0.000234723105116076,0.000432360198042404,1.69898195956045e-05,-2.07248457082252e-05
0.000231587900614017,0.000438344504734546,1.36764356116868e-05,-1.53997192818532e-05
0.000227522863598041,0.000442910220796479,9.43948275063432e-06,-1.06584882318288e-05
0.000222671045224133,0.000446188476454525,3.97077757049924e-06,-7.58937953112716e-06
0.000216007245541051,0.000447702434522059,-2.44184674620315e-06,-7.24768243844546e-06
0.000208842766812013,0.000446629550852153,-9.39621487701509e-06,-8.36546393906037e-06
0.000203108799642849,0.000446951415953124,-1.61074288166163e-05,-8.22309673956736e-06
0.000197637092926329,0.000447690513592393,-2.16881952625555e-05,-7.43672091734664e-06
0.000192701828044762,0.000446534183414828,-2.61755618197054e-05,-1.05092774886203e-05
0.000188827525903435,0.000437796141969928,-3.04064801612843e-05,-1.86963163791644e-05
0.000185799609768367,0.000431156184146177,-3.42988963881794e-05,-2.50930773631637e-05
0.000183606158709893,0.000436627890862697,-3.61143335755217e-05,-2.09690709051707e-05
0.000185525428386058,0.000452649620333291,-3.43330406175689e-05,-6.06902203226412e-06
0.000190293800252306,0.000468564061436895,-2.97703661886647e-05,1.08490151890224e-05
0.000195956241843476,0.000479328660924951,-2.48879420273311e-05,2.12263476001561e-05
0.000199365627727844,0.000483548670026581,-2.11404026562923e-05,2.33613365459533e-05
0.00020294190662753,0.000480604200399172,-1.77346571747139e-05,2.06604226425549e-05
0.000208091748243078,0.00047633650757888,-1.29810024847852e-05,1.73892651469737e-05
0.000215280068831448,0.000478303460973707,-6.2970685191077e-06,1.69308360474378e-05
0.000222373021982492,0.00048210623753704,1.10480676729975e-06,2.05661198193003e-05
0.000228989137946912,0.000486767321036298,7.04511245971123e-06,2.58671303851196e-05
0.00023155213782502,0.000490677385966622,9.94397044212358e-06,2.82003423506441e-05
0.000232601179635595,0.000487923651213864,1.00301773095562e-05,2.5290953893754e-05
0.000231587900614017,0.000482130079396372,9.04477175193783e-06,1.90370316210441e-05
0.000230956091341739,0.000476133851774564,8.56163318773373e-06,1.2400558527994e-05
0.000231587900614017,0.000470960168299685,8.83277059538073e-06,6.58216179033954e-06
0.000233292593556201,0.00046596529876979,9.45718332751786e-06,1.94533723177879e-06
0.000233590616797842,0.000465285805778849,1.04922436210415e-05,-7.78925723865867e-07
0.00023547412368501,0.000463998345374962,1.20971943292093e-05,-1.73378529383459e-06
0.000237560286376493,0.000462985066353385,1.3481667889066e-05,-2.42895740089973e-06
0.000238025202633453,0.00046452286628025,1.33192929322999e-05,-3.44277178891739e-06
0.000235021128357716,0.000463485745399341,1.13840776272697e-05,-3.38149080941371e-06
0.000233745588883495,0.000466132191785108,8.98481338903453e-06,-1.70858153643638e-06
0.000232827677299242,0.00046817067075793,7.45952620759144e-06,-8.75735644742984e-07
0.000231337561091039,0.000464475182561587,6.72043716592488e-06,-3.74021343592178e-06
0.000230932249482408,0.000459957150218317,5.47902516462246e-06,-1.01525809576319e-05
0.000228071226362659,0.000452709224981619,2.54619430680062e-06,-1.77189747903782e-05
0.000223743928894039,0.0004453301695186,-2.11449306179059e-06,-2.44600799357044e-05
0.000218606008208156,0.000442290332453867,-7.22419152152746e-06,-2.90574885764959e-05
0.000215041650238135,0.000441992309212226,-1.11236811710996e-05,-3.04590078153472e-05
0.000213050854983977,0.000441789653407911,-1.32705297422449e-05,-2.97980364116066e-05
0.000212049496892065,0.000441217448783961,-1.46116343234818e-05,-3.09833535950843e-05
0.000210344803949881,0.000437796141969928,-1.59972597907995e-05,-3.59813498786836e-05
0.000210380566738878,0.000433850314250607,-1.668451787154e-05,-4.03236276130616e-05
0.00021167994807243,0.000435864951364097,-1.53469368135617e-05,-3.69586952457472e-05
0.000214338315387864,0.00045003893673652,-1.22893577473316e-05,-2.47733727460764e-05
0.000218164933810528,0.000465834168543468,-9.44234686104644e-06,-1.00840509230161e-05
0.000219130529113443,0.000475251702979308,-8.0832129072322e-06,7.93839795360014e-07
0.00021916629190244,0.000482642679371993,-7.74701449421955e-06,7.20591380389445e-06
0.000220370305798668,0.000488257437244501,-7.5493107241436e-06,1.15349285448982e-05
0.000220012677908699,0.000490725069685284,-7.1764842761325e-06,1.45325923993712e-05
0.000221025956930277,0.000492048292878168,-6.05893745383787e-06,1.56090665140764e-05
0.000225150598594582,0.00049217942310449,-3.09224230059042e-06,1.5293832899501e-05
0.000228273882166975,0.000491809874284856,1.66737807933431e-06,1.45457414511774e-05
0.000233745588883495,0.000490093260413007,6.07296394520202e-06,1.27215030652061e-05
0.000235438360896013,0.000486087828045358,7.9854517599206e-06,8.59024508698137e-06
0.000234889998131394,0.00048017504693121,7.82211685956622e-06,2.95446687748333e-06
0.000235044970217047,0.000476491479664533,8.03036192113921e-06,-1.39132423564385e-06
0.000237572207306159,0.000476121930844899,1.05160568313882e-05,-2.0785037807133e-06
0.000242471709398729,0.000478470353989026,1.54426592122662e-05,1.33058860587953e-06
0.000248289123075552,0.000484633474626152,2.18104483029155e-05,7.37426979886923e-06
0.0002542019041897,0.000492000609159506,2.79110660636095e-05,1.32009993065119e-05
0.000258433834220996,0.000493001967251418,3.16573556072408e-05,1.61922509989416e-05
0.000257611290074068,0.00049324038584473,3.20108931718946e-05,1.65616842995626e-05
0.000256252304092187,0.000495517283410864,3.02700406823687e-05,1.75652370281953e-05
0.000254321113486356,0.000498509436756935,2.88216942855001e-05,2.17815491080194e-05
0.000253558173987757,0.000503850013247133,2.83316306390608e-05,2.79358148127829e-05
0.000251817718256576,0.000508916408355022,2.69625438203335e-05,3.26041382007412e-05
0.000247335448702302,0.000510108501321584,2.25007984833643e-05,3.39443277099387e-05
0.00023854972353874,0.000507032901467854,1.45591096178887e-05,3.21998640413401e-05
0.000228798403072262,0.00050263407842124,4.76948515061306e-06,2.78588770916705e-05
0.000219213975621103,0.000496006041527154,-4.29030853773176e-06,2.1659337009692e-05
0.000212883961968658,0.000489306479055076,-1.0442353515778e-05,1.55545848993903e-05
0.000209105027264656,0.000483906297916549,-1.34460495861356e-05,1.08534158709229e-05
0.00020648242273822,0.000477409391248786,-1.56248331958351e-05,5.51143978231237e-06
0.000202631962456224,0.000468349484702914,-1.99260465330671e-05,-3.84936316155688e-06
0.000194418441916611,0.000454485443501797,-2.67037157000116e-05,-1.65970795544676e-05
0.000187563907358879,0.000442016151071557,-3.3130560043296e-05,-2.73465924670583e-05
0.00018478633074679,0.000438213374508224,-3.63188728717567e-05,-3.17047624489875e-05
0.000183904181951534,0.000437939193125915,-3.62644137013838e-05,-3.07166534963596e-05
0.00018413067961518,0.000438916709358496,-3.50731875592631e-05,-2.84443389804238e-05
0.000185322772581743,0.000439202811670471,-3.41363899997307e-05,-2.71591575217841e-05
0.00018565655861238,0.000440120723254724,-3.31929816517297e-05,-2.6478763852897e-05
0.000186562549266967,0.000439310100037461,-3.17111185530118e-05,-2.54237411621264e-05
0.000187718879444532,0.000439929988380074,-2.96731066404019e-05,-2.31520295378868e-05
0.000191307079273884,0.000445282485799938,-2.653839203493e-05,-1.8587496715282e-05
0.000196075451140133,0.000450599220430804,-2.0619296857588e-05,-1.13074740928172e-05
0.000205445301857311,0.000457811382878505,-1.0760912331918e-05,-2.51541490115381e-06
0.000217568887327247,0.000466334847589424,1.41737105638604e-06,6.08257982364439e-06
0.000227665914754028,0.000473034410061503,1.1994674489471e-05,1.37114418291956e-05
0.000232744230791582,0.000477325944741127,1.81363488336382e-05,1.97174677006589e-05
0.000235617174840997,0.000479006795823979,2.06954292821823e-05,2.25496251293389e-05
0.000237154974767862,0.000478410749340698,2.28351650548117e-05,2.15463132507219e-05
0.000239825263012961,0.000473535089107459,2.62084036545295e-05,1.90578580385409e-05
0.000242698207062376,0.000472140340336581,2.92857734995282e-05,1.84855258520127e-05
0.000242531314047057,0.000473713903052443,2.96868985962886e-05,2.02095876860253e-05
0.00024075509552688,0.000473487405388797,2.73443315015695e-05,2.16025569927281e-05
0.000236189379464947,0.000472533731015547,2.46455663137362e-05,2.13528268694749e-05
0.000235807909715647,0.000471520451993969,2.38567528290164e-05,2.14393539194181e-05
0.000237381472431509,0.000473248986795484,2.51344097288688e-05,2.37162153526863e-05
0.000238227858437768,0.000475108651823321,2.68199623929946e-05,2.63903971437647e-05
0.000237202658486525,0.0004730701728505,2.68659409472563e-05,2.55131028812909e-05
0.000235331072529022,0.00046596529876979,2.40045292473016e-05,1.90082340269743e-05
0.00022943021234454,0.000454342392345809,1.8423357821129e-05,7.98719812854762e-06
0.000221979631303527,0.000440990951120314,1.17544594043269e-05,-4.94486839964376e-06
0.000215637696721417,0.000427377249442175,5.99290046771124e-06,-1.71867352636683e-05
0.000212836278249996,0.000417661691764694,2.02406203851721e-06,-2.66325011587132e-05
0.000209295762139306,0.000411725068791215,-8.12221473686776e-07,-3.25176670258195e-05
0.000205707562309954,0.000407552743408247,-3.86482988045874e-06,-3.60571045662646e-05
0.000201356422982003,0.000402903580838655,-8.10609227793921e-06,-3.91122849689309e-05
0.000196838390638732,0.000401091599529481,-1.35500576545894e-05,-4.19313309442146e-05
0.000190830242087259,0.000399804139125594,-1.91020898264538e-05,-4.30156316643979e-05
0.000186061870221011,0.000399971032140912,-2.31278412515531e-05,-4.13569585395774e-05
0.000184929381902777,0.00040338041802528,-2.48612393370272e-05,-3.78795111571784e-05
0.000185155879566424,0.000408339524766178,-2.52622711042905e-05,-3.42333472068521e-05
0.000184273730771168,0.000410640264191643,-2.5885292790922e-05,-3.08705563779101e-05
0.000182247172728012,0.000413393998944402,-2.698976279532e-05,-2.69713554914299e-05
0.000183141242452934,0.000420022035838487,-2.74976253015777e-05,-2.19608313840979e-05
0.000184500228434815,0.000425982500671297,-2.66644072811228e-05,-1.63561529666975e-05
0.000185287009792746,0.000430083300476271,-2.47160445129983e-05,-1.07543892922235e-05
0.000188994418918754,0.000436973597823,-2.17239963109564e-05,-4.25327562264387e-06
0.000194597255861596,0.000448763397262299,-1.7146910683135e-05,5.24904201389093e-06
0.000200319302101094,0.000460135964163301,-1.10808985265325e-05,1.82257057234389e-05
0.000206816208768857,0.000473141698428494,-4.83322871018839e-06,3.10978521161998e-05
0.000212585938727018,0.000481402902686769,5.88347189898201e-07,3.80442071639811e-05
0.000218427194263172,0.000480949907359475,5.59684719004093e-06,3.62656927358904e-05
0.000223612798667717,0.00047173502872795,1.06571922865837e-05,2.88002282153597e-05
0.000227737440332022,0.000465512303442496,1.47012335692356e-05,2.12283274167472e-05
0.00023019315184314,0.000462949303564388,1.62425025320293e-05,1.64527008680588e-05
0.000229692472797184,0.000459313420016373,1.55828898409721e-05,1.40534865782766e-05
0.000229585184430193,0.000459778336273333,1.45811240489825e-05,1.37247202144791e-05
0.000229334844907215,0.000464069870952956,1.44528835918456e-05,1.66125964260142e-05
0.000230646147170433,0.000470984010159016,1.50181150522445e-05,2.26489323254768e-05
0.000232529654057601,0.000477385549389455,1.58777937123052e-05,2.87756689691527e-05
0.000233161463329879,0.000479924707408232,1.68229772640886e-05,3.12388316824243e-05
0.000234365477226107,0.00047949555394027,1.69156184243518e-05,2.85764892004305e-05
0.000232732309861917,0.00047336819609214,1.4714458246118e-05,2.169761558756e-05
0.000228083147292325,0.000463509587258672,1.01541090263313e-05,1.26235712501404e-05
0.000224697603267288,0.000457215336395224,5.16628241955818e-06,4.09087749845537e-06
0.000221025956930277,0.000452590015684963,1.66101973555946e-06,-1.5978181969205e-06
0.000219333184917759,0.000449049499574274,-4.68486994262667e-07,-5.16516076987389e-06
0.000218045724513872,0.00044484141140231,-2.8826099232429e-06,-1.03307865243474e-05
0.000214445603754854,0.000437486197798621,-7.10832483422225e-06,-1.91850003028027e-05
0.000207459938970801,0.000428140188940775,-1.37061734181812e-05,-2.88914888839221e-05
0.000200665009061397,0.000422513510138602,-2.20351701955702e-05,-3.52348760931815e-05
0.000193035614075399,0.000421357179961036,-2.99221568145322e-05,-3.80287842669149e-05
0.000189030181707751,0.000419211412621225,-3.43189169076819e-05,-3.98848267797282e-05
0.000190305721181972,0.000419747854456178,-3.34826525526285e-05,-4.05689860858157e-05
0.000196254265085117,0.000425028826298048,-2.84699650567752e-05,-3.68124255098748e-05
0.000202775013612212,0.000433313872415654,-2.19017400113108e-05,-2.84567571259895e-05
0.000210154069075231,0.000441134002276301,-1.54685884375376e-05,-2.06999412762485e-05
0.000216710580391322,0.000446033504368872,-9.05081017809147e-06,-1.79299284159657e-05
0.000224232687010329,0.000446021583439206,-1.8173671132328e-06,-1.81824627157489e-05
0.000233483328430851,0.000447690513592393,6.3935403549626e-06,-1.64274187229082e-05
0.00024124385364317,0.000453126457519916,1.44490363167465e-05,-1.13030942026981e-05
0.000247490420787956,0.00046079161529491,2.03056425418982e-05,-5.53383470406583e-06
0.000250732913657004,0.000465428856934837,2.2605412611863e-05,-8.51700734326362e-07
0.000250053420666064,0.000469553498599142,2.22798628670317e-05,4.09562381675856e-06
0.000249707713705761,0.00047701600056982,2.17035199800873e-05,1.043989196879e-05
0.000250494495063692,0.000484108953720865,2.16942446037889e-05,1.62707670546426e-05
0.000249195113730139,0.000485432176913749,2.05531467498792e-05,1.84171972129836e-05
0.000245511546463462,0.000482726125879653,1.713062887141e-05,1.60704506505474e-05
0.000242722048921707,0.000479352502784282,1.34926793458942e-05,1.18218672752589e-05
0.000241744532689126,0.000477468995897114,1.26688468360053e-05,9.39605503882148e-06
0.000243294253545657,0.00047796967494307,1.4561106372322e-05,1.05888751328936e-05
0.000245416179026137,0.000480949907359475,1.62771922256481e-05,1.4259814781064e-05
0.000245189681362491,0.000485396414124752,1.61920216603279e-05,1.81697717743914e-05
0.000244307532567235,0.000489211111617751,1.52579304949469e-05,2.13595028589358e-05
0.000242865100077695,0.000490641623177625,1.40749667256811e-05,2.41812923080328e-05
0.000239598765349315,0.000492310553330812,1.12859145232561e-05,2.66733686695571e-05
0.000235080733006044,0.000494909315997917,6.03607782782427e-06,2.84060014720499e-05
0.000228154672870318,0.000495708018285514,-3.82441978019784e-08,2.96519583937281e-05
0.000222980989395439,0.00049552920434053,-4.83374544982254e-06,3.05660598869523e-05
0.000219333184917759,0.00049275162772844,-8.40455302856232e-06,2.89386421886984e-05
0.000215816510666401,0.000486052065256361,-1.21704420161552e-05,2.15789301978922e-05
0.000210106385356568,0.000473308591443812,-1.6657268905059e-05,9.48400672291426e-06
0.000205361855349651,0.000461804894316488,-2.12982230668499e-05,-8.13468743926438e-07
0.000201237213685346,0.000457394150340208,-2.53511097574417e-05,-3.4648775941519e-06
0.000198376190565597,0.000462782410549069,-2.77152537800057e-05,5.99709398619661e-07
0.000198197376620613,0.000466942815002371,-2.70184362330506e-05,5.86299939456759e-06
0.000201857102027959,0.000467336205681336,-2.3404104480579e-05,8.84521926908199e-06
0.000205254566982661,0.000469028977693854,-1.91736535857065e-05,1.00159890280861e-05
0.000208234799399066,0.000469219712568504,-1.6012760217709e-05,1.06540259462378e-05
0.000210881245784834,0.000468242196335923,-1.25977685693526e-05,1.11583234778546e-05
0.000216269505993694,0.00046778920100863,-6.80420700649469e-06,1.20206355502721e-05
0.000223040594043767,0.000469136266060845,7.34259355322902e-07,1.34246204023576e-05
0.000229716314656515,0.00046846869399957,7.60494736493756e-06,1.39106476714865e-05
0.000235116495795041,0.000465595749950156,1.34184138335907e-05,1.21115637005139e-05
0.000240027918817277,0.000462877777986394,1.97480051028248e-05,9.64613236989218e-06
0.000246596351063034,0.000460696247857585,2.62084028470042e-05,9.37279711377408e-06
0.000249886527650745,0.000461924103613144,2.96403265074171e-05,1.07040443013099e-05
0.000247192397546315,0.000460350540897282,2.83226753428981e-05,9.7733115291619e-06
0.000242924704726023,0.000454485443501797,2.45597257578785e-05,4.71413531962368e-06
0.00023999215602828,0.000445354011377931,2.15186209670669e-05,-2.3895585006837e-06
0.000237095370119534,0.000438821341921171,1.93957355017316e-05,-9.49994107198211e-06
0.000233399881923192,0.000431132342286846,1.65275316920287e-05,-1.69828457537823e-05
0.000229573263500527,0.000421750570640002,1.2858989724325e-05,-2.43910099084634e-05
0.000225949300882179,0.000416767622039772,1.01976300621491e-05,-2.84158447913776e-05
0.000226128114827163,0.000419509435862865,9.63329668230163e-06,-2.69020704773774e-05
0.000225365175328563,0.000422525431068267,1.04394954002068e-05,-2.26979108161148e-05
0.000225436700906557,0.000423121477551548,1.12328136900637e-05,-2.06924794196651e-05
0.000226056589249169,0.000421345259031371,1.08220248517708e-05,-2.2333507596341e-05
0.00022270680801313,0.000419318700988215,8.26113234496119e-06,-2.52214335968608e-05
0.000216591371094666,0.000416874910406763,3.60709767029186e-06,-2.66857478375665e-05
0.000212156785259055,0.000416457677868466,-1.35993608552192e-06,-2.56822273550629e-05
0.000209641469099609,0.000420570398603105,-4.59656191818984e-06,-2.28534247883908e-05
0.000206184399496579,0.000421953226444317,-6.34605501604397e-06,-2.12551636298201e-05
0.000203049194994521,0.000416946435984757,-9.17598198857112e-06,-2.53754971284049e-05
0.000198555004510582,0.000406777882979982,-1.50625346455712e-05,-3.61049454737335e-05
0.000189220916582401,0.000395298027711989,-2.3292844981089e-05,-4.74513774657684e-05
0.000180220614684857,0.000391054176751028,-3.1642672842e-05,-5.15880893169215e-05
0.000174200545203718,0.000396716618342198,-3.86640807387054e-05,-4.69836022893066e-05
0.000168704996627867,0.000404477143554517,-4.39614198892279e-05,-3.84462452971534e-05
0.000165092954939184,0.000413513208241058,-4.68600314635471e-05,-2.95521433718161e-05
0.000166451940921065,0.00042496922164972,-4.62187614309793e-05,-1.93725920116608e-05
0.000170731554671023,0.000436794783878015,-4.20813575185169e-05,-7.79721370966141e-06
0.000175905238145902,0.000444662597457325,-3.66615238127398e-05,6.50540070496528e-07
0.000179958354232213,0.000447011020601453,-3.25043071347727e-05,2.09124539921963e-06
0.000184249888911837,0.000446188476454525,-2.94839408873341e-05,-4.70121525457832e-08
0.000188386451505807,0.000448274639146008,-2.46224270916116e-05,2.17317687212525e-06
0.000197303306895692,0.000458347824713458,-1.57345251036932e-05,1.20880607392827e-05
0.000209712994677603,0.00047249796822655,-4.68561266974008e-06,2.53000756553301e-05
0.0002181053291622,0.000484514265329496,4.21387776813029e-06,3.58602357594501e-05
0.000223326696355742,0.000490939646419266,9.07351263070288e-06,4.26291774429734e-05
0.000227320207793725,0.000496900111252076,1.24026619655532e-05,4.82399470655129e-05
0.000232553495916933,0.000504601031816067,1.77136613368777e-05,5.3876202381135e-05
0.000241351142010161,0.000507664710740132,2.52716703932982e-05,5.71876645914322e-05
0.000247633471943943,0.00050590041314962,3.21465503897798e-05,5.49948015356929e-05
0.00025188924383457,0.00049955847856751,3.56661630358684e-05,4.67562458124177e-05
0.000252842918207819,0.000487399130308576,3.56095934635193e-05,3.51803224343726e-05
0.000250494495063692,0.000477564363334439,3.33683285664705e-05,2.39767923876697e-05
0.000247836127748259,0.000469779996262788,3.02928796014381e-05,1.52650645952331e-05
0.000245451941815134,0.000463736084922319,2.71641717445058e-05,9.05728927521947e-06
0.000242984309374351,0.000460135964163301,2.43773059844308e-05,4.68931249527096e-06
0.000241589560603473,0.000458157089838808,2.20087976163666e-05,1.64963529551174e-06
0.000239050402584696,0.000455248383000397,1.98636566747629e-05,-1.31110843691158e-06
0.000237703337532481,0.000451719787819373,1.76853299419303e-05,-6.18990614842304e-06
0.000236666216651572,0.000444960620698966,1.53649573716789e-05,-1.3060937076789e-05
0.000233864798180151,0.00043917896981114,1.30643362275854e-05,-1.8566156963152e-05
0.000232374681971948,0.00044053795579302,1.10283434404058e-05,-1.9934535797259e-05
0.000231146826216389,0.000439143207022143,8.79130371472566e-06,-2.03201174041899e-05
0.000227379812442053,0.00043256285384672,4.63408259766987e-06,-2.64017619084754e-05
0.000219726575596724,0.000422585035716595,-3.1203173188139e-06,-3.90176602403026e-05
0.000209701073747937,0.000411558175775896,-1.36854607146836e-05,-4.95848718356241e-05
0.000200343143960425,0.00041143896647924,-2.3636052378753e-05,-4.9103218445141e-05
0.000194501888424271,0.000423193003129542,-3.00690232966154e-05,-3.8679251141374e-05
0.000191605102515525,0.000434410597944891,-3.31355573301205e-05,-2.74116231884811e-05
0.000190424930478628,0.000441420104588276,-3.440066861169e-05,-2.09883359782512e-05
0.000191926967616497,0.000445485141604253,-3.37435772861954e-05,-1.6483377736784e-05
0.000196647655764082,0.000454056290033835,-2.96952688662686e-05,-8.22183223063922e-06
0.00020370484612613,0.000468301800984251,-2.23259549251322e-05,5.71302164582434e-06
0.000212204468977718,0.000486564665231983,-1.36777989707192e-05,2.38846957099371e-05
0.000222671045224133,0.000506699115437216,-5.27627871024942e-06,4.38892920453573e-05
0.000229442133274206,0.000523436100687748,2.68591064733855e-06,6.15897911680061e-05
0.000236642374792241,0.000533771546707841,9.36869939897327e-06,7.13418020983549e-05
0.000240623965300558,0.000534248383894466,1.2944180128116e-05,7.07378752399514e-05
0.000241386904799158,0.000525045426192607,1.34331258338014e-05,6.36581809475817e-05
0.000242447867539398,0.000517177612613297,1.37765115134195e-05,5.56806491063521e-05
0.000243580355857632,0.000510287315266568,1.63141570693874e-05,4.77072993110734e-05
0.000248479857950202,0.000498950511154563,1.97252337291167e-05,3.69107464324703e-05
0.000250518336923023,0.00048305991191029,2.13229012917241e-05,2.26565901951572e-05
0.000249016299785155,0.000468838242819204,2.10340583252012e-05,7.94768653833596e-06
0.000249660029987099,0.00045684578757559,2.08592568624651e-05,-4.6911028733994e-06
0.00025025607647038,0.000444746043964985,2.12806260126844e-05,-1.52856058988988e-05
0.000249660029987099,0.000435936476942091,2.06916432318219e-05,-2.38486834936043e-05
0.000246918216164006,0.000430381323717911,1.81064608759093e-05,-2.88804665554101e-05
0.000242733969851373,0.000429940249320283,1.40603191331131e-05,-2.98095291908629e-05
0.000237774863110475,0.000429856802812624,8.79311776339736e-06,-2.87756298600897e-05
0.000231099142497727,0.000429570700500649,1.99337297771935e-06,-2.85216290593631e-05
0.000223588956808386,0.000427722956402478,-5.10904161344222e-06,-2.9804395980835e-05
0.0002184867989115,0.000426006342530629,-9.75298779613174e-06,-3.1702847502946e-05
0.000218164933810528,0.000424051310065467,-1.09089785752552e-05,-3.30617200057901e-05
0.000218081487302869,0.000423300291496533,-1.07748241638456e-05,-3.28617094443145e-05
0.000215804589736735,0.000424659277478413,-1.18529174348373e-05,-3.06055133498363e-05
0.000214505208403182,0.000428962733087703,-1.40865453190271e-05,-2.71613015015243e-05
0.000212228310837049,0.000431251551583502,-1.61147565461383e-05,-2.39126704940195e-05
0.000209975255130247,0.000433552291008967,-1.78245180036898e-05,-2.04873629274875e-05
0.000207757962212441,0.000438165690789562,-2.00297069256566e-05,-1.49733649215588e-05
0.000204837334444364,0.000447320964772759,-2.26884917273089e-05,-7.12745065313418e-06
0.000202512753159568,0.000454139736541494,-2.50304725830399e-05,5.75472691222219e-07
0.000200891506725043,0.00045714381081723,-2.66138792476895e-05,6.20354471337987e-06
0.000199770939336475,0.000462639359393082,-2.67395904532618e-05,1.0512292389853e-05
0.000203263771728502,0.000467050103369361,-2.36922999566889e-05,1.41472440530642e-05
0.000210475934176203,0.000465679196457815,-1.64449356629286e-05,1.50797720796856e-05
0.000219380868636421,0.000461196926903541,-6.75503549652351e-06,1.17471485222054e-05
0.00022817851472965,0.000458431271221117,2.12926070140498e-06,7.15937922144261e-06
0.000234651579538082,0.00045627358295164,8.63188922937222e-06,6.15072719344718e-06
0.000238966956077037,0.000457358387551211,1.31819093814595e-05,8.76137830918955e-06
0.000241410746658489,0.000459265736297711,1.58738958891716e-05,9.92291859183591e-06
0.000240921988542198,0.000454652336517116,1.60232756594546e-05,6.36937893998662e-06
0.000239682211856974,0.000449061420503939,1.43502219290284e-05,4.68176185838794e-07
0.000238144411930109,0.000443971183536719,1.34213375835348e-05,-4.27750662417238e-06
0.000239646449067977,0.000438582923327859,1.48284538425475e-05,-8.29406111134131e-06
0.00024132730015083,0.000433015849174014,1.73805306783383e-05,-1.37433159073575e-05
0.000243651881435626,0.000429070021454693,1.91440478385712e-05,-1.93218372381333e-05
0.000244104876762919,0.000425553347203335,2.00343714548956e-05,-2.06839374475124e-05
0.000245022788347172,0.000429332281907337,2.11814735553418e-05,-1.58200650355785e-05
0.000246119513876409,0.000439631965138433,2.2680812019686e-05,-7.44942233357561e-06
0.000246882453375009,0.000446653392711484,2.33438978913293e-05,3.31650619014457e-07
0.000246179118524737,0.000451159504125089,2.22468093176981e-05,5.91459257401988e-06
0.000242114081508761,0.000455009964407084,1.93903225711662e-05,1.00844300659457e-05
0.000238156332859774,0.000459086922352727,1.50631042469417e-05,1.35308468233362e-05
0.000233030333103557,0.000461816815246154,9.59865957313051e-06,1.56248194328313e-05
0.0002268433706071,0.000459706810695339,3.82866796757335e-06,1.54889414637456e-05
0.000221526635976233,0.000457656410792852,-1.03048229820126e-06,1.37260136180272e-05
0.00021878482215314,0.000458788899111086,-4.31444991055373e-06,1.25022455229298e-05
0.000216436399009013,0.000457978275893824,-6.53858487924351e-06,1.3219847512901e-05
0.000213813794482576,0.000457894829386164,-8.97814316053409e-06,1.44081377101758e-05
0.00021042825045754,0.000458574322377105,-1.25384585684197e-05,1.35304507250398e-05
0.000206029427410926,0.000456750420138265,-1.68014735680718e-05,1.13448618576809e-05
0.000202739250823215,0.000456166294584649,-2.02563616657265e-05,1.2315536397941e-05
0.000201582920645649,0.000463593033766331,-2.18505068449719e-05,1.90055920838727e-05
0.00020092726951404,0.000473248986795484,-2.21508846766662e-05,2.7870954369929e-05
0.000200605404413069,0.000476992158710489,-2.23259722114057e-05,3.30771188055373e-05
0.000201797497379631,0.00047854187956702,-2.21647600091238e-05,3.31848982956516e-05
0.000203764450774458,0.000476419954086539,-2.02094829787664e-05,3.10814243283493e-05
0.000207173836658826,0.000472414521718891,-1.60777943926083e-05,2.81986875517209e-05
0.000212740910812671,0.000468158749828264,-1.14470615837305e-05,2.27033755783792e-05
0.000216674817602326,0.000460052517655642,-8.09960059750349e-06,1.39294218508994e-05
0.000218641770997153,0.000450110462314514,-6.02388851788426e-06,4.82993654130977e-06
0.000220131887205356,0.000443255927756782,-4.22566727811845e-06,-1.81663027135075e-06
0.000222945226606442,0.000439739253505424,-2.40706818091783e-06,-7.04215806130989e-06
0.000225269807891238,0.000432920481736689,-7.98670975452372e-07,-1.36506741617969e-05
0.000226402296209472,0.000423657919386501,8.47501352652745e-07,-2.24860485250085e-05
0.000228893770509587,0.000413918519849689,2.86572046293581e-06,-3.23634735882595e-05
0.000231289877372377,0.000406134152778038,4.77861303879958e-06,-4.1953499440293e-05
0.000233697905164832,0.000397241139247485,5.90136395499033e-06,-5.00982048605279e-05
0.000233232988907873,0.000391554855796984,6.40389875283175e-06,-5.5685879891519e-05
0.000234043612125135,0.000389719032628479,6.68398205133543e-06,-5.85757435078513e-05
0.000235044970217047,0.000389254116371519,6.13577691695596e-06,-5.94225262390611e-05
0.00023250581219827,0.000391018413962031,3.79969003616436e-06,-5.79204846656687e-05
0.000228548063549284,0.000395584130023964,4.39106459518478e-08,-5.30553912706735e-05
0.000226116193897497,0.000404572510991842,-3.52020880480061e-06,-4.55380283986954e-05
0.000224626077689295,0.000412273431555833,-5.65584601286313e-06,-3.73119565660932e-05
0.000223982347487351,0.000422465826419939,-6.11960782592503e-06,-2.80364564005587e-05
0.000225639356710872,0.000435197379302822,-5.12936199889344e-06,-1.57405270148641e-05
0.000227963937995668,0.000448584583317315,-3.38384923515602e-06,-2.22314408817094e-06
0.000229287161188552,0.000458276299135464,-2.05759986328721e-06,7.09452748924969e-06
0.000231099142497727,0.000464415577913259,-1.26371789976064e-06,1.16746206316398e-05
0.000233578695868176,0.000471031693877679,9.43431869818932e-07,1.88927376448117e-05
0.000237941756125793,0.000485014944375452,6.00240488592981e-06,3.32920373601622e-05
0.000245261206940484,0.000501072436635043,1.14598085230239e-05,4.73075589348085e-05
0.000246512904555375,0.000503861934176799,1.26638161254728e-05,5.0034936625689e-05
0.000241827979196786,0.000495886832230498,8.5093360911479e-06,4.26358384305152e-05
0.000236904635244884,0.00048997405111635,3.10969516080928e-06,3.65931731628963e-05
0.000235700621348656,0.000492882757954762,4.57979237463987e-07,3.71191095190887e-05
0.000234258188859116,0.000491511851043215,-4.31932466876763e-07,3.71522733830218e-05
0.000230884565763746,0.00048412087465053,-3.16971941326654e-06,2.9725501191454e-05
0.000227010263622419,0.000473785428630437,-8.43379674893203e-06,1.79106776230335e-05
0.000222718728942795,0.000464093712812287,-1.31756357348522e-05,8.41138103150841e-06
0.00022011996627569,0.000457930592175161,-1.46816704340844e-05,2.24155360803883e-06
0.000221884263866202,0.000452923801715601,-1.32233701477846e-05,-2.88777902697009e-06
0.000225496305554885,0.000450480011134148,-1.06901581879879e-05,-6.35035045579597e-06
0.000227212919426734,0.000449144867011599,-8.29319349701212e-06,-6.7770216173373e-06
0.000229215635610559,0.000450181987892508,-5.87346106413672e-06,-6.48017168918038e-06
0.000233089937751885,0.000449669387916886,-2.3778089044182e-06,-7.6521538245931e-06
0.000238859667710046,0.000449132946081933,2.99320506559573e-06,-7.21112724903539e-06
0.000244045272114591,0.000454437759783134,9.26736387830215e-06,-1.80219586250031e-06
0.000248658671895186,0.000462842015197397,1.37814383252034e-05,4.27161953087083e-06
0.000250113025314392,0.000459444550242695,1.49349795333852e-05,3.2258141182836e-06
0.000248777881191843,0.000451838997116029,1.43503384003486e-05,-4.49339073412192e-06
0.00024853946259853,0.000448179271708683,1.4818029998577e-05,-9.56918310514083e-06
0.000251030936898645,0.00045118334598442,1.65303314292068e-05,-6.21756911571876e-06
0.000250506415993358,0.000457000759661243,1.72566834238043e-05,7.74868879636669e-07
0.000248777881191843,0.000460279015319289,1.62350565504117e-05,4.02839211430657e-06
0.000248706355613849,0.000461626080371504,1.56604879775486e-05,3.7085039724268e-06
0.000249612346268436,0.000462043312909801,1.74531819326002e-05,5.84611185476258e-06
0.000251173988054632,0.000469172028849842,2.034262347992e-05,1.33082678264814e-05
0.000252711787981498,0.000478661088863676,2.14917236420035e-05,2.22898224222191e-05
0.000250315681118708,0.000483608274674909,1.99045933020883e-05,2.71713624182194e-05
0.000246512904555375,0.000482308893341356,1.69496745875281e-05,2.65332317785392e-05
0.000242602839625051,0.000479173688839298,1.41896661529533e-05,2.41679762510304e-05
0.000240540518792899,0.000480103521353216,1.17958111323033e-05,2.46732880892156e-05
0.000236165537605616,0.000483477144448587,8.74543000036238e-06,2.76902810203977e-05
0.000230145468124477,0.000481140642234125,3.85689563187705e-06,2.71474983063914e-05
0.000223279012637079,0.000472545651945213,-2.97394915782483e-06,1.79679240781679e-05
0.000214755547926161,0.000457394150340208,-1.0053769016082e-05,2.98414770856112e-06
0.000209462655154625,0.000444066550974044,-1.49826074004546e-05,-9.61168076665386e-06
0.000206446659949223,0.000437951114055581,-1.69997933479502e-05,-1.58187509257721e-05
0.000204432022835733,0.000433468844501307,-1.76636035745222e-05,-1.94171926518012e-05
0.000203263771728502,0.000427687193613481,-1.88297553919557e-05,-2.50787891766198e-05
0.000199854385844134,0.000421309496242374,-2.08484345704482e-05,-3.19006481191094e-05
0.000196683418553079,0.000415158296534914,-2.32176770438807e-05,-3.64354356288039e-05
0.000192964088497406,0.000412964845476439,-2.56575521501939e-05,-3.87394999870689e-05
0.000191283237414553,0.000410723710699303,-2.73812687129561e-05,-4.13096824721024e-05
0.000190651428142275,0.000407207036447944,-2.65115452992208e-05,-4.37669638693277e-05
0.000193929683800321,0.000407564664337913,-2.20029025781429e-05,-4.2909428817874e-05
0.000200140488156109,0.000412929082687442,-1.56428503753326e-05,-3.77876929290554e-05
0.000204432022835733,0.000419211412621225,-1.04375657856604e-05,-3.11073302830143e-05
0.00020610095298892,0.000424158598432457,-7.14037308637046e-06,-2.52818016956622e-05
0.000209522259802953,0.000429189230751349,-3.90205207801954e-06,-2.02545143928862e-05
0.000212538255008355,0.000433659579375957,7.30374116780575e-07,-1.57973555746126e-05
0.000217747701272231,0.000435876872293763,6.17951285829917e-06,-1.27682857899819e-05
0.000221908105725533,0.000437569644306281,1.14562869800908e-05,-1.06564231560634e-05
0.000226533426435794,0.000442135360368214,1.66512602850554e-05,-6.41681585765479e-06
0.00023106337970873,0.000450146225103511,2.19647159495023e-05,2.33090896643471e-06
0.000234782709764404,0.000461804894316488,2.6570689465467e-05,1.44308881321304e-05
0.000237739100321478,0.000474381475113718,2.95222989943716e-05,2.68814350754154e-05
0.000237655653813818,0.000484812288571136,3.09483266072076e-05,3.78662192125498e-05
0.000237846388688468,0.000493347674211721,3.13460840619705e-05,4.66389193413416e-05
0.000236523165495584,0.000498664408842588,3.02696924890883e-05,5.19094512321031e-05
0.00023201705408198,0.000498151808866966,2.67397603395797e-05,5.24541821237604e-05
0.000225651277640538,0.000495302706676883,2.07840148983837e-05,4.89031764252001e-05
0.000218260301247853,0.000489246874406747,1.38302708767863e-05,4.34331977011804e-05
0.000211727631791093,0.00048286917703564,7.48390880122614e-06,3.77596997780824e-05
0.000205743325098951,0.000477409391248786,2.13183487323906e-06,3.19731889303735e-05
0.000199830543984803,0.000469815759051785,-3.403658125432e-06,2.45145970164212e-05
0.000192117702491146,0.000457251099184221,-1.08588413054924e-05,1.2748947783825e-05
0.000182282935517009,0.000439977672098736,-2.06918252075063e-05,-4.7449910921316e-06
0.000171494494169622,0.000419878984682499,-3.10490631412857e-05,-2.48473511293657e-05
0.000162935266669706,0.00040338041802528,-3.90550213329921e-05,-4.02570586662295e-05
0.000159132490106373,0.000398933911260003,-4.33764445445961e-05,-4.55531715677483e-05
0.000157070169274221,0.000401699566942428,-4.50923426730061e-05,-4.25900049933443e-05
0.000155806550729665,0.000404393697046858,-4.59901573786513e-05,-3.81108857549994e-05
0.00015532971354304,0.000407743478282897,-4.67077971181426e-05,-3.65488537295472e-05
0.000155317792613375,0.000406765962050316,-4.66836240512228e-05,-3.70983504299285e-05
0.000157332429726865,0.000405240083053117,-4.49646567438029e-05,-3.70814909427176e-05
0.000160968313274879,0.000407743478282897,-4.05575984969986e-05,-3.51607038229732e-05
0.00016992093145376,0.000413131738491758,-3.28557281008186e-05,-3.07296903033535e-05
0.000179588805412579,0.000419664407948518,-2.2453886833294e-05,-2.29188151384191e-05
0.000191664707163853,0.000430047537687274,-1.09449525489015e-05,-1.17113757514444e-05
0.000203359139165827,0.00044456723002,6.81281195310093e-07,1.52462417336863e-06
0.000215828431596066,0.000458705452603427,1.27691535200714e-05,1.56007472771632e-05
0.000228655351916275,0.000471675424079622,2.55186822302522e-05,3.00954905456112e-05
0.000241076960627851,0.000485217600179768,3.75579811719661e-05,4.35786096186371e-05
0.000250589862501017,0.000496363669417123,4.6824211626386e-05,5.30105974742082e-05
0.000256693378489815,0.000497913390273654,5.22265815309636e-05,5.61948068759798e-05
0.000257706657511393,0.000494754343912264,5.36522814685419e-05,5.3663073090333e-05
0.00025640727617784,0.000490164785991,5.11797983448514e-05,4.73395521556351e-05
0.000250780597375667,0.000480532674821179,4.54933178251719e-05,3.88140162748867e-05
0.00024421216512991,0.000471270112470991,3.84820346089024e-05,2.97559170347936e-05
0.000238156332859774,0.00046414139653095,3.2064681301288e-05,2.21976509793988e-05
0.000233221067978207,0.000458884266548411,2.66436785237437e-05,1.69978930587444e-05
0.000229275240258887,0.000455009964407084,2.1737895253998e-05,1.32858863029341e-05
0.000224697603267288,0.000451922443623688,1.74848292868365e-05,1.02419319745117e-05
0.000221955789444196,0.000449585941409227,1.39844540754123e-05,7.60884279858707e-06
0.000218939794238793,0.000445759322986562,9.75362449387649e-06,3.72460715558268e-06
0.000211822999228418,0.00043746235593929,3.09666789617646e-06,-3.9667125065101e-06
0.00020495654374102,0.0004278540866288,-4.73504667961185e-06,-1.44765607044166e-05
0.000200378906749422,0.000420093561416481,-1.00381457037933e-05,-2.24698233098041e-05
0.000199162971923528,0.000416088129048832,-1.13518109348966e-05,-2.5172614973113e-05
0.000199806702125472,0.000415182138394245,-1.18333476146438e-05,-2.74723880607622e-05
0.000196135055788461,0.000407576585267579,-1.55466353249248e-05,-3.568729333877e-05
0.000189447414246047,0.000393915199870777,-2.27827734161474e-05,-4.77096206621688e-05
0.000182902823859622,0.000388360046646598,-3.05915589419452e-05,-5.44132216903255e-05
0.000176656256714836,0.000393021130145856,-3.66364654901265e-05,-5.09085028327486e-05
0.000173771391735756,0.000400888943725165,-4.04005919023878e-05,-4.16341149842686e-05
0.000173151503393144,0.000409758115396387,-4.12896542999297e-05,-3.33275677755957e-05
0.000177741061314408,0.000416731859250776,-3.81691807670451e-05,-2.74835714382515e-05
0.000184154521474512,0.000422358538052949,-3.14097766110286e-05,-2.17048264344445e-05
0.000192260753647134,0.000428748156353721,-2.34990333568207e-05,-1.45009466430229e-05
0.000201427948559996,0.00043909552330348,-1.65297591472595e-05,-5.8198276418125e-06
0.000207054627362169,0.000449669387916886,-1.02511236299564e-05,4.39312640863018e-06
0.000213766110763914,0.000459027317704398,-3.60038624381472e-06,1.51006771468025e-05
0.000222170366178177,0.00046904089862352,2.94045364368879e-06,2.3303396110615e-05
0.000227391733371719,0.000472795991468191,7.97600520610981e-06,2.67391051518877e-05
0.000230622305311102,0.000471711186868619,1.16422187273918e-05,2.63013983039726e-05
0.000236225142253944,0.000470316438097741,1.57264850349055e-05,2.4139263781383e-05
0.000242018714071436,0.000468063382390939,2.10292051881482e-05,2.09811976509162e-05
0.000246846690586012,0.000463771847711316,2.59181352691388e-05,1.70058324223037e-05
0.000250101104384727,0.000460255173459957,2.82581563911593e-05,1.33915906766775e-05
0.000249934211369408,0.000459086922352727,2.78692874895312e-05,1.07965848802793e-05
0.000249016299785155,0.000455486801593709,2.61528741297422e-05,7.92706508857116e-06
0.000247347369631968,0.000452017811061013,2.40308668371573e-05,3.83451070711266e-06
0.00024459363487921,0.000449085262363271,2.15707605433942e-05,5.36311289181878e-08
0.000243771090732282,0.000446891811304796,1.92787083388557e-05,-1.89488426178669e-06
0.000242519393117392,0.000445580509041578,1.80042201618035e-05,-3.51583254379858e-06
0.00024162532339247,0.000442576434765842,1.70816260152309e-05,-7.12573341457738e-06
0.000239574923489983,0.000438129928000565,1.4192507000341e-05,-1.19949521818727e-05
0.000233995928406473,0.000434541728171213,8.27180296958759e-06,-1.56320692914166e-05
0.000227344049653056,0.000432240988745748,1.43835779252901e-06,-1.76456049435547e-05
0.000222969068465773,0.000432133700378758,-3.43914619022309e-06,-1.89256940096344e-05
0.000220167649994352,0.00043389799796927,-6.3650410003275e-06,-1.80111295847217e-05
0.000217306626874603,0.000437223937345978,-9.74470290674778e-06,-1.25562545861315e-05
0.000212562096867686,0.000446927574093793,-1.47486872637597e-05,-4.60518102182346e-06
0.000207412255252138,0.000452768829629947,-2.01706233818204e-05,-3.37488605003323e-08
0.000202524674089234,0.000450193908822173,-2.50100834199244e-05,-1.12239158600498e-06
0.000198245060339276,0.000447690513592393,-2.98653130646232e-05,-3.03263642439764e-06
0.000194048893096977,0.000453484085409885,-3.46184978252787e-05,3.12138842008632e-07
0.000191164028117897,0.000461995629191138,-3.66636692965509e-05,9.31891015512567e-06
0.000195252906993205,0.000470566777620719,-3.34918406282734e-05,1.94583547216e-05
0.000202715408963883,0.000478661088863676,-2.63242701472393e-05,2.65293116506127e-05
0.000209581864451281,0.000482547311934668,-1.93098071081662e-05,2.92088938689047e-05
0.000213336957295952,0.000480484991102516,-1.50768143009993e-05,2.84752365614767e-05
0.000217390073382263,0.000478446512129695,-1.23826670681916e-05,2.68427407931613e-05
0.000220668329040309,0.00047941210743261,-8.33847484793882e-06,2.67683519047612e-05
0.000227069868270747,0.000480079679493885,-1.89820753428229e-06,2.78153796141469e-05
0.000234699263256744,0.000478768377230667,5.26110284965861e-06,2.67008654883725e-05
0.000240123286254602,0.0004734516425998,1.0709774790174e-05,2.1886946486061e-05
0.000242722048921707,0.000468063382390939,1.37432898172429e-05,1.63350424635688e-05
0.000245416179026137,0.000465321568567846,1.60066220953165e-05,1.33700502231191e-05
0.000248777881191843,0.000462663201252413,1.95096915197152e-05,1.15823944953744e-05
0.000252878680996816,0.000458347824713458,2.3983565531312e-05,7.00660781385795e-06
0.000256299987810849,0.000449597862338892,2.69817020029409e-05,-7.26993592277324e-07
0.000256073490147203,0.000443029430093135,2.71668169450931e-05,-7.99101232194047e-06
0.000255107894844287,0.000438070323352237,2.64882300808554e-05,-1.25516796549868e-05
0.000256943718012793,0.000433921839828601,2.77193498239874e-05,-1.55668565321694e-05
0.000258505359798989,0.000431633021332802,3.03858745578463e-05,-1.77300567489044e-05
0.000259649769046889,0.000432598616635717,3.10038786288529e-05,-1.73617690811678e-05
0.000256073490147203,0.000435102011865497,2.76310536842622e-05,-1.40568367525283e-05
0.000250327602048373,0.000436830546667012,2.24050667063198e-05,-1.09424954275086e-05
0.000246405616188384,0.000437235858275643,1.85954806733464e-05,-1.0808981368704e-05
0.000244653239527538,0.000436854388526344,1.64977976863105e-05,-1.22655412396754e-05
0.000241029276909189,0.000434315230507566,1.37325035061491e-05,-1.21675539087035e-05
0.000236046328308959,0.000436377551339719,8.92132460894266e-06,-1.00158865363031e-05
0.000230944170412074,0.000439977672098736,3.31445197806489e-06,-7.69778868267528e-06
0.000225043310227591,0.000438940551217827,-1.5118893956544e-06,-6.94384974546026e-06
0.000220596803462315,0.00043534043045881,-6.18282548727524e-06,-9.74790929621708e-06
0.00021388532006057,0.000426995779692875,-1.26493693541513e-05,-1.88592502556434e-05
0.00020514727861567,0.000411558175775896,-2.11564607885761e-05,-3.34647988572975e-05
0.000196671497623414,0.000398361706636054,-2.92037266298253e-05,-4.55313243581182e-05
0.000191962730405493,0.000398683571737025,-3.40784564919335e-05,-4.57614095432965e-05
0.000189638149120697,0.000409650827029397,-3.58846497154202e-05,-3.42613555391988e-05
0.000188303004998148,0.000421977068303649,-3.71169741867262e-05,-2.09409205134131e-05
0.000185990344643017,0.000429058100525027,-3.91241307245741e-05,-1.35514619104861e-05
0.000185287009792746,0.000434124495632916,-3.9982130409908e-05,-9.33962969876538e-06
0.000188064586404835,0.000440859820893992,-3.66072658861717e-05,-1.15513837562563e-06
0.000196087372069798,0.000452852276137607,-2.83350256653647e-05,1.20097790941913e-05
0.000207424176181804,0.000467550782415317,-1.74420315789223e-05,2.48106566403309e-05
0.000217628491975575,0.000475049047174993,-6.60599670264707e-06,3.36481079296371e-05
0.000226557268295125,0.000480270414368535,2.79779557058824e-06,4.00874708069975e-05
0.000234472765593098,0.00048747065588657,9.99567847009765e-06,4.62054740909595e-05
0.000237989439844456,0.000491106539434584,1.42704914421606e-05,5.05098882081446e-05
0.000239777579294299,0.000490474730162306,1.61265780143713e-05,4.98768510067914e-05
0.000241613402462804,0.000483489065378253,1.77468779310846e-05,4.33584718031517e-05
0.000244009509325594,0.000472641019382538,2.07579825436628e-05,3.30228391643199e-05
0.000247800364959262,0.000462949303564388,2.39200581321948e-05,2.24514544278601e-05
0.00024747849985829,0.000455224541141065,2.43687082099887e-05,1.49497083142748e-05
0.00024459363487921,0.000451219108773417,2.11617472990565e-05,1.18259595840013e-05
0.000239706053716305,0.000450944927391107,1.6424935637607e-05,1.1649178397988e-05
0.000236201300394613,0.000452709224981619,1.27095898749009e-05,1.17990461631662e-05
0.000233328356345198,0.000450766113446123,1.03403059279736e-05,1.08074749086156e-05
0.000231397165739367,0.000447654750803396,8.08452276107361e-06,8.68588485716408e-06
0.000228977217017246,0.000446224239243522,5.52062866728221e-06,5.70897594339159e-06
0.000226640714802785,0.000442802932429488,3.41579341746896e-06,2.09810797100292e-06
0.000224816812563945,0.000438344504734546,1.88284147570608e-06,-1.74081787722822e-06
0.000223636640527048,0.000434279467718569,-3.93219205386886e-07,-6.13079226920934e-06
0.000218689454715815,0.000427711035472812,-4.26042811424694e-06,-1.27179786421864e-05
0.000215089333956798,0.000419187570761893,-8.33240437451564e-06,-2.2604956914063e-05
0.000213301194506955,0.000406956696924966,-1.05028287695145e-05,-3.44347751109143e-05
0.000212538255008355,0.000394749664947371,-1.11154869672254e-05,-4.58165955039826e-05
0.000210142148145565,0.000386512302548427,-1.30842931273043e-05,-5.56357633864007e-05
0.00020620824135591,0.000380527995856285,-1.80883875451803e-05,-6.28841877719175e-05
0.000199913990492463,0.00037708284718292,-2.38062838373571e-05,-6.4474814523813e-05
0.00019766093478566,0.000385022186340224,-2.62315418848423e-05,-5.75949889751933e-05
0.000200033199789119,0.000399994874000244,-2.41468776234506e-05,-4.42635282014545e-05
0.000204312813539077,0.000413215184999417,-1.98962485997115e-05,-3.04887046127642e-05
0.000208294404047394,0.000423324133355864,-1.60341901062275e-05,-2.04366498703888e-05
0.000211524975986777,0.000430679346959552,-1.29296329526245e-05,-1.39872712678927e-05
0.000214433682825189,0.000435745742067441,-9.93640179604987e-06,-9.82614561977203e-06
0.000217998040795209,0.000438010718703909,-7.05693123164724e-06,-7.21462228960683e-06
0.000220060361627362,0.000442004230141892,-4.30757101174339e-06,-4.05837053245413e-06
0.000224411500955313,0.000449216392589592,-7.79793940607918e-07,2.59444889046583e-06
0.000229060663524906,0.000458955792126405,4.10222404754978e-06,1.22468134432195e-05
0.000234234346999785,0.000468349484702914,9.0696614853977e-06,2.072234937755e-05
0.000237357630572178,0.000474524526269706,1.23145972475688e-05,2.63494252360555e-05
0.000239789500223964,0.000480568437610175,1.40718635883678e-05,3.26780161725376e-05
0.000241851821056117,0.000490915804559934,1.63920912733526e-05,4.21004125520868e-05
0.00024527312787015,0.000500059157613466,2.01589656310937e-05,5.0243491875493e-05
0.000249695792776095,0.000500321418066109,2.36922804311215e-05,5.07330073916744e-05
0.000251209750843629,0.000492870837025096,2.49204169252098e-05,4.32302596011839e-05
0.000249028220714821,0.000483679800252902,2.39623259064004e-05,3.27329835983679e-05
0.000248742118402846,0.000474047689083081,2.2788485694494e-05,2.27705498812789e-05
0.000249898448580411,0.000464689759295568,2.29528320301476e-05,1.36534910502096e-05
0.000250101104384727,0.000457870987526833,2.44354652434813e-05,6.24054445737168e-06
0.000251948848482898,0.000454628494657784,2.62718060506527e-05,2.53472848942233e-06
0.000254166141400703,0.000454986122547753,2.7319534157922e-05,2.09999160881078e-06
0.000253105178660463,0.000454032448174503,2.63238841175776e-05,1.63666080099548e-06
0.000247871890537255,0.000451517132015057,2.21507174010209e-05,-1.14046091255806e-06
0.000241196169924508,0.000447571304295737,1.4741840556033e-05,-5.898648013297e-06
0.000232756151721248,0.000442242648735204,5.76961796224527e-06,-1.18489839473537e-05
0.000224661840478292,0.000434589411889876,-2.24165180796725e-06,-1.83676426394657e-05
0.000218045724513872,0.000430083300476271,-7.84659278939694e-06,-2.34292673979594e-05
0.000215065492097467,0.000430130984194933,-1.17030532676446e-05,-2.48413125340411e-05
0.000212085259681061,0.000430333639999249,-1.55520746274337e-05,-2.35781337286793e-05
0.000205898297184604,0.000430643584170555,-2.03395769883682e-05,-2.26932342445515e-05
0.0002010107160217,0.000432777430580701,-2.55533286842292e-05,-2.23155869914677e-05
0.000197219860388032,0.000434994723498507,-3.01172072142098e-05,-1.90712697684782e-05
0.000193786632644333,0.000443077113811798,-3.33103595482935e-05,-1.14237592945592e-05
0.000191962730405493,0.00045156481573372,-3.47377449029566e-05,-2.18043445475406e-06
0.000192880641989746,0.000460076359514973,-3.4084523689254e-05,5.73606270170074e-06
0.000195860874406151,0.000467443494048327,-3.13740371613105e-05,1.26731134636697e-05
0.000200140488156109,0.000472855596116519,-2.71531375575979e-05,1.94127098297641e-05
0.000204825413514698,0.000477576284264105,-2.20842954027016e-05,2.40260385438454e-05
0.000210571301613528,0.000478756456301001,-1.66154267960469e-05,2.43673603863558e-05
0.000216114533908041,0.00047527554483864,-1.11973105949712e-05,2.18025305896617e-05
0.000221121324367602,0.000472784070538525,-6.2701045645379e-06,1.98966716810782e-05
0.000225651277640538,0.000473570851896456,-1.69461395334826e-06,2.05200703142436e-05
0.000230133547194812,0.000476253061071221,3.14286925629342e-06,2.29614410938304e-05
0.000235784067856316,0.000477767019138755,8.10312896046476e-06,2.54607344275892e-05
0.000239646449067977,0.000477957754013404,1.18768867573537e-05,2.59401431932865e-05
0.000240540518792899,0.000474536447199371,1.36071797834475e-05,2.27042902232294e-05
0.000241923346634111,0.000468158749828264,1.42192993465913e-05,1.61857607386752e-05
0.000242733969851373,0.000459826019991995,1.49585402908625e-05,8.82750366892047e-06
0.000242817416359032,0.000452613857544294,1.51865677417318e-05,2.06297668800292e-06
0.00024067164901922,0.000445663955549237,1.32934315506792e-05,-4.82324547517524e-06
0.000237619891024821,0.000438547160538862,9.73139367827869e-06,-1.16489092211601e-05
0.000235128416724707,0.000433981444476929,7.26720588946376e-06,-1.57508936577058e-05
0.00023539067717735,0.000432837035229029,7.60904412353405e-06,-1.56495116230889e-05
0.00023691655617455,0.000435042407217169,9.41568981198939e-06,-1.39326191961068e-05
0.00023903848165503,0.000434863593272185,1.05855757558852e-05,-1.3738151248198e-05
0.000238382830523421,0.000433194663118998,1.09717174333846e-05,-1.44146568860822e-05
0.000239717974645971,0.000433027770103679,1.14346494559904e-05,-1.37213696189288e-05
0.000239384188615333,0.000434792067694191,1.15359844105995e-05,-1.22924695431605e-05
0.000238275542156431,0.000434911276990847,1.01659337145162e-05,-1.21433626454e-05
0.000235748305067319,0.000432479407339061,7.85390938333544e-06,-1.24171390158085e-05
0.000234663500467747,0.000434207942140576,6.35675801732299e-06,-1.11978122105464e-05
0.000233912481898813,0.000434410597944891,5.86689776729346e-06,-1.06850185967881e-05
0.000232470049409273,0.000429344202837002,4.46029223353996e-06,-1.52503778075168e-05
0.000228881849579921,0.000419747854456178,7.6264873246642e-07,-2.37062365137756e-05
0.000224137319573004,0.000414097333794673,-4.4071894256585e-06,-2.86885321352762e-05
0.000218176854740194,0.000417804742920681,-9.62982340181205e-06,-2.57997162028672e-05
0.000213539613100267,0.000423359896144861,-1.45242672756764e-05,-1.91198182138256e-05
0.000209844124903925,0.000425803686726313,-1.87778479244111e-05,-1.50157212927759e-05
0.000207078469221501,0.000427317644793847,-2.09263818151569e-05,-1.42027385244952e-05
0.000208234799399066,0.000428104426151778,-1.96893178526914e-05,-1.32601453054381e-05
0.000212526334078689,0.000429260756329343,-1.59504729171173e-05,-1.09194009645542e-05
0.000216007245541051,0.000430333639999249,-1.20337081244157e-05,-8.56874963986176e-06
0.000219023240746453,0.000433671500305623,-9.20832789548299e-06,-6.0909789847428e-06
0.000220978273211615,0.000437927272196249,-6.99312451913243e-06,-1.54929171488035e-06
0.00022338630100407,0.000442421462680189,-4.70729200180144e-06,4.93515802164745e-06
0.000225818170655857,0.00044791701125604,-2.49159777377699e-06,1.02864274510103e-05
0.0002272248403564,0.00045003893673652,-6.67920546544583e-07,1.20819655371386e-05
0.000228774561212931,0.000447988536834033,8.46420299602066e-07,1.08076693919245e-05
0.000230157389054143,0.000443446662631432,2.10176672173605e-06,8.09754900499571e-06
0.000230908407623077,0.000441479709236604,2.84632963601316e-06,4.75599462333083e-06
0.000231111063427392,0.000437057044330659,3.10180808515737e-06,1.22709545762256e-06
0.000230824961115418,0.000433158900330001,3.51999571318581e-06,-1.41213065918115e-06
0.000233292593556201,0.00043324234683766,4.86105615231212e-06,-1.64839303065154e-06
0.000235331072529022,0.000436508681566041,7.40298420683775e-06,1.83233008483746e-06
0.000238049044492784,0.000443184402178788,1.08770288998675e-05,9.38779234046055e-06
0.000242483630328395,0.000452733066840951,1.45897106290889e-05,1.93740978553147e-05
0.000246083751087412,0.000462210205925119,1.77297525634859e-05,2.85624073988964e-05
0.000247180476616649,0.00046808722425027,2.00965279125084e-05,3.50426120281794e-05
0.000249719634635427,0.00047219994498491,2.23071184976877e-05,4.00558029630932e-05
0.000252890601926482,0.000477790860998086,2.45252670547682e-05,4.53001916362591e-05
0.000252652183333169,0.0004821896840447,2.53144512703576e-05,4.94651642011906e-05
0.000250267997400045,0.000481259851530781,2.3042815782478e-05,5.01098305051177e-05
0.000246369853399387,0.000479686288814919,1.84685661392552e-05,4.83233966849135e-05
0.000242078318719764,0.000480151205071879,1.43275406131494e-05,4.76947843377858e-05
0.000238978877006702,0.000478458433059361,1.17211155430751e-05,4.78129663959306e-05
0.000236034407379294,0.000473427800740469,8.48058077369784e-06,4.27813536890279e-05
0.00023000241696849,0.000460517433912601,2.24925891128717e-06,2.8763654604022e-05
0.000221478952257571,0.00044091942554232,-6.21405165381783e-06,1.00690220767601e-05
0.000212860120109327,0.000424516226322426,-1.43745844581792e-05,-5.61537647995653e-06
0.00020648242273822,0.000415241743042573,-2.13571390792856e-05,-1.61721714357139e-05
0.000199925911422128,0.000405216241193786,-2.78723082892149e-05,-2.56154873840552e-05
0.000194144260534302,0.000393569492910474,-3.33075247619376e-05,-3.68242731900858e-05
0.000192284595506465,0.000383329414327706,-3.55107010884407e-05,-4.78535332739505e-05
0.000193870079151993,0.00037525894494408,-3.3981613161335e-05,-5.58166352212805e-05
0.000196731102271742,0.000370240233554854,-3.10554055941692e-05,-6.05831701937491e-05
0.000199043762626872,0.00036853554061267,-2.87816274340003e-05,-6.29490345355006e-05
0.000201785576449965,0.000369560740563914,-2.6320361868019e-05,-6.19404168117762e-05
0.00020582677160661,0.000375103972858427,-2.18516511475732e-05,-5.62730181702371e-05
0.000212776673601667,0.000385296367722533,-1.57620411999079e-05,-4.71068136619355e-05
0.000217676175694238,0.00039445164170573,-1.01661148672311e-05,-3.75051998889929e-05
0.000222170366178177,0.000402569794808018,-5.92975038127842e-06,-2.99332026924821e-05
0.000226724161310444,0.000407528901548916,-2.00962325196656e-06,-2.54250944280165e-05
0.000230371965788124,0.00040972235260739,2.23635874621988e-06,-2.40360118479094e-05
0.000234043612125135,0.000408601785218822,5.73668975383866e-06,-2.44245763997154e-05
0.000236272825972606,0.000410699868839971,7.40561729342882e-06,-2.34273360246776e-05
0.000236666216651572,0.000417971635936,8.13252572237069e-06,-1.75018750070207e-05
0.000238728537483724,0.000429582621430315,1.00267239853057e-05,-5.01368225307331e-06
0.000242531314047057,0.000447785881029718,1.38013372833007e-05,1.27407212031321e-05
0.000246679797570693,0.000468671349803886,1.76276429911919e-05,3.18310182893454e-05
0.00024796725797458,0.00048412087465053,1.89596012695188e-05,4.68882694124948e-05
0.000246214881313734,0.000490152865061335,1.72620633225711e-05,5.37739785106649e-05
0.000243496909349973,0.000490081339483341,1.44319983516748e-05,5.24221804215068e-05
0.000241923346634111,0.000486004381537699,1.24612012952651e-05,4.62932771703569e-05
0.000240719332737883,0.000477314023811461,1.1418133200008e-05,3.83907988464568e-05
0.000239408030474665,0.000467908410305286,1.03041468460619e-05,2.90524711289716e-05
0.000238621249116734,0.000458753136322089,9.04010454648927e-06,1.81204441262466e-05
0.000237774863110475,0.000449311760026917,8.1610380735561e-06,6.8801943830818e-06
0.000236415877128594,0.000436902072245006,6.8199469184228e-06,-3.95095308809602e-06
0.000232374681971948,0.000425505663484672,3.04815734711225e-06,-1.59118703821357e-05
0.000226414217139138,0.000414812589574611,-3.27475602198084e-06,-2.96145264567821e-05
0.000220918668563287,0.000402879738979324,-9.32444503705346e-06,-4.13186289493665e-05
0.000216865552476975,0.000396704697412532,-1.23531172120138e-05,-4.59911560266395e-05
0.000217211259437278,0.000402581715737683,-1.25192426014157e-05,-4.32242496879179e-05
0.000218629850067487,0.00040904285961645,-1.14340687127929e-05,-3.70086927757762e-05
0.000220763696477633,0.000416123891837829,-9.28637019422461e-06,-3.00740817695165e-05
0.000223875059120361,0.000424182440291789,-5.37562873679129e-06,-2.1994686567436e-05
0.000229609026289524,0.000434982802568841,-5.95013519204304e-07,-1.29337218688405e-05
0.000232863440088239,0.000443220164967785,3.02057001922002e-06,-5.06033255122267e-06
0.000234997286498385,0.000449502494901567,5.11931335175556e-06,1.2122869297781e-06
0.000237178816627193,0.000457990196823489,7.19278814540811e-06,8.7960278525938e-06
0.000238907351428708,0.00046885016374887,9.6921635082648e-06,1.96305460627899e-05
0.000241804137337454,0.000482344656130353,1.12293859025938e-05,3.17195551105896e-05
0.000241255774572836,0.000493025809110749,1.13412960539074e-05,4.25604162446433e-05
0.000240695490878552,0.000503134757467196,1.18380002868098e-05,5.25315021864023e-05
0.000244605555808875,0.000513184101175314,1.40694966767554e-05,6.20432517600725e-05
0.00024652482548504,0.000520193607818699,1.66223940680292e-05,6.79809385437204e-05
0.000246572509203703,0.000518798859047822,1.73848233012089e-05,6.67006050524907e-05
0.000246441378977381,0.000510370761774228,1.6538288168899e-05,5.91207202007952e-05
0.000245487704604131,0.000502610236561908,1.56311585049316e-05,4.93594137495284e-05
0.000244176402340913,0.000492215185893487,1.46718231095988e-05,3.93110194249252e-05
0.000241863741985782,0.000480496912032182,1.22962312209248e-05,2.80330839883966e-05
0.000238227858437768,0.000468754796311545,8.46890885814737e-06,1.58128701946331e-05
0.000234198584210788,0.000458490875869446,4.86440356048757e-06,4.97986920408234e-06
0.00023193360757432,0.000449395206534577,2.23432778546985e-06,-3.65384928885384e-06
0.000228679193775606,0.000441479709236604,-8.32256354880666e-07,-1.17969834028547e-05
0.000223612798667717,0.000432741667791704,-5.79624151881606e-06,-2.03885919396841e-05
0.000217318547804269,0.000425016905368382,-1.20872517667441e-05,-2.82245823237079e-05
0.000211513055057112,0.000418603445208278,-1.79220304637351e-05,-3.46981154410675e-05
0.000207412255252138,0.000411760831580212,-2.22794081129623e-05,-4.10727908139856e-05
0.000203800213563455,0.000405168557475123,-2.53236123540422e-05,-4.78464712756367e-05
0.000201511395067656,0.000399279618220306,-2.76236210961531e-05,-5.33852582013068e-05
0.000200223934663769,0.000395965599773264,-2.97210728368037e-05,-5.64561808736243e-05
0.00019727946503636,0.000394868874244027,-3.18681051476015e-05,-5.76114740765365e-05
0.000195765506968826,0.000395846390476608,-3.3373013239267e-05,-5.64990155340786e-05
0.000196635734834417,0.000400364422819878,-3.26497371686086e-05,-5.03888668760606e-05
0.000201034557881031,0.000414240384950661,-2.88372027617535e-05,-3.78561198268148e-05
0.000205886376254939,0.000429463412133659,-2.32359714518633e-05,-2.23478679655972e-05
0.000210464013246537,0.000439703490716427,-1.83141360909556e-05,-9.65761886055346e-06
0.000214886678152482,0.000448119667060355,-1.5211368298627e-05,-2.60261946226391e-06
0.000216305268782691,0.000450921085531776,-1.28760661817435e-05,2.18502508307299e-07
0.000219476236073746,0.000450742271586792,-9.73809152696903e-06,1.65823773036652e-06
0.000223755849823704,0.000452566173825632,-5.46217286383326e-06,3.99663801632997e-06
0.000229132189102899,0.000457572964285193,-6.89935695923724e-07,8.61382846718953e-06
0.00023337604006386,0.0004639506616563,4.20611325572204e-06,1.53927290838275e-05
0.000238645090976065,0.000470030335785767,9.27623909591611e-06,2.27161946747344e-05
0.000243544593068635,0.000476133851774564,1.41529809961496e-05,2.95149141084078e-05
0.000247526183576952,0.000483620195604574,1.79870355551126e-05,3.64915847948289e-05
0.00024998189508807,0.000490021734835013,2.05666116748587e-05,4.37062338114473e-05
0.000252485290317851,0.000493299990493059,2.29698960403782e-05,4.82474625334863e-05
0.00025553704831225,0.000491893320792515,2.65786140799255e-05,4.68880789799789e-05
0.000261640564301048,0.000484812288571136,3.15004600824914e-05,4.04856165898509e-05
0.000265371815286387,0.00047758820519377,3.61676327475053e-05,3.30871466624294e-05
0.000267303005892217,0.000469756154403457,3.83870437883324e-05,2.68617394983481e-05
0.000266921536142918,0.000462675122182078,3.67468536619849e-05,2.0709495260596e-05
0.000260603443420139,0.000457274941043552,3.14381225358729e-05,1.40409956556356e-05
0.000253188625168122,0.000450098541384848,2.41772775157558e-05,8.72366646509135e-06
0.000247037425460662,0.000446355369469843,1.7185329020441e-05,5.99932451427523e-06
0.000241076960627851,0.000444722202105653,1.17444630886657e-05,4.04438367554812e-06
0.000236499323636253,0.000440228011621714,7.59252720910287e-06,3.3718665886975e-07
0.000233364119134195,0.000434124495632916,3.84045579379894e-06,-5.33837116866668e-06
0.000229871286742168,0.000426423575068925,3.15714507416754e-07,-1.17259520795284e-05
0.000226295007842482,0.000419735933526512,-2.29320703814041e-06,-1.81657187677395e-05
0.00022597314274151,0.000414109254724339,-3.46100969138518e-06,-2.41723211749498e-05
0.000225532068343882,0.000407850766649888,-3.59246103245785e-06,-2.85240494465854e-05
0.000225234045102241,0.000405704999310076,-3.82819724998685e-06,-3.06768125481167e-05
0.000223183645199755,0.000403666520337255,-5.41599492399761e-06,-3.19579177427218e-05
0.000220012677908699,0.000401997590184068,-9.10614147389718e-06,-3.36338014119434e-05
0.000214171422372545,0.000399994874000244,-1.46810659088608e-05,-3.49160311218077e-05
0.000207507622689463,0.000398457074073379,-2.1106070728156e-05,-3.46528340779194e-05
0.000200939190443706,0.000400936627443828,-2.74634707398595e-05,-3.37375503414954e-05
0.000195336353500864,0.000399363064727966,-3.34331774332197e-05,-3.35746444778848e-05
0.00019006730258866,0.000399172329853316,-3.83418226681836e-05,-3.31113127697983e-05
0.000187945377108179,0.000402414822722365,-4.03521847645408e-05,-3.00704856779166e-05
0.000190031539799663,0.000406754041120651,-3.78666921991754e-05,-2.47939661975226e-05
0.000196802627849735,0.000411164785096931,-3.16455069038855e-05,-2.00913929152375e-05
0.000204098236805095,0.000413966203568351,-2.40915602600016e-05,-1.69368690437408e-05
0.000211036217870487,0.000417542482468038,-1.61669712659357e-05,-1.27967485737653e-05
0.000221490873187236,0.000424790407704735,-6.67489253908719e-06,-4.93479538867165e-06
0.000232458128479608,0.000436639811792362,4.57576408561563e-06,6.74649570940594e-06
0.000241732611759461,0.000450193908822173,1.46279557448849e-05,2.07742573882619e-05
0.000247693076592271,0.000463962582585965,2.01246906775409e-05,3.55305070255683e-05
0.000248515620739199,0.000476944474991827,2.12547366149294e-05,4.82964996846661e-05
0.000248599067246858,0.000484156637439527,2.11593280039531e-05,5.5236417141466e-05
0.000248742118402846,0.000482082395677709,2.19331955961414e-05,5.47141875692153e-05
0.000249922290439742,0.000477814702857417,2.30814661740182e-05,4.96803721567327e-05
0.000250995174109648,0.000472617177523206,2.37662519571911e-05,4.49442449060694e-05
0.000251197829913964,0.000469839600911117,2.4496073605765e-05,4.26823294711333e-05
0.000252127662427882,0.000469732312544126,2.59332372014566e-05,4.19450764992738e-05
0.000254511848361006,0.000468504456788567,2.75105943258885e-05,4.14733713193729e-05
0.000254476085572009,0.000467622307993311,2.80151580925919e-05,4.08614107521377e-05
0.000252592578684841,0.000466620949901399,2.65252238547797e-05,3.9201711670583e-05
0.000248658671895186,0.000462412861729435,2.2286349990832e-05,3.47055304087918e-05
0.000241208090854173,0.000452542331966301,1.48800940828793e-05,2.64649132998737e-05
0.000231456770387695,0.000443244006827116,5.32337831138967e-06,1.57226483099695e-05
0.000221776975499211,0.000432956244525686,-3.94759385837428e-06,4.99551688758805e-06
0.000215089333956798,0.000423181082199876,-1.10654352073216e-05,-3.80127357238825e-06
0.000210106385356568,0.000416767622039772,-1.61184526943214e-05,-1.086070684194e-05
0.00020533801349032,0.000409173989842772,-2.00567863140838e-05,-1.87460329702745e-05
0.000202667725245221,0.000398111367113076,-2.3087262666851e-05,-3.01758823227134e-05
0.000201392185771,0.000384879135184236,-2.48846582885185e-05,-4.41320048506727e-05
0.0001998663067738,0.000373029731096609,-2.56156847347094e-05,-5.4918011013695e-05
0.000199413311446506,0.000372040293934363,-2.58268838397418e-05,-5.7109442562579e-05
0.000200533878835075,0.00037956240055337,-2.56817982566779e-05,-5.14056092472755e-05
0.000200676929991062,0.000385737442120161,-2.48935158012314e-05,-4.36687922388618e-05
0.000202333939214584,0.000391769432530965,-2.30525033588725e-05,-3.81081212354689e-05
0.000205767166958282,0.000398325943847057,-1.97779385383582e-05,-3.37755103778029e-05
0.000210523617894865,0.000403833413352574,-1.52291340762968e-05,-2.84627939949954e-05
0.000215268147901782,0.000408303761977181,-1.0628205948262e-05,-2.31959849930379e-05
0.000217652333834906,0.000412297273415165,-7.19739817902164e-06,-2.05465613702943e-05
0.000221741212710214,0.000414538408192301,-4.30113083378749e-06,-2.02035076385119e-05
0.000225508226484551,0.000415337110479898,-1.49717213652038e-07,-1.91367698746141e-05
0.000230467333225449,0.000418615366137944,5.01269595581555e-06,-1.58601914929519e-05
0.000234055533054801,0.000424146677502792,8.30613445494548e-06,-1.21057300639376e-05
0.000233304514485867,0.000427591826176156,8.12568014931403e-06,-9.91980959465467e-06
0.000233137621470548,0.000428485895901078,6.76209468832508e-06,-9.05040020857219e-06
0.000232672705213589,0.000429964091179615,7.08830622178757e-06,-7.92345028897187e-06
0.000233316435415532,0.000434303309577901,8.32327420929143e-06,-5.69346618238273e-06
0.00023432971443711,0.000438261058226887,7.90674560249319e-06,-2.39095216116694e-06
0.000232541574987267,0.000442779090570157,6.46502721509253e-06,1.8805646053431e-06
0.000232446207549942,0.000448870685629289,7.38988521172003e-06,6.79508040639822e-06
0.000237655653813818,0.000454795387673103,1.14747205942106e-05,1.12924520208518e-05
0.000241792216407789,0.00045809748519048,1.54653504685943e-05,1.40141515409438e-05
0.000242245211735082,0.00045924189443838,1.68303729724419e-05,1.42605664691852e-05
0.000243043914022679,0.000458395508432121,1.67499043036697e-05,1.245294615716e-05
0.000243055834952345,0.00045714381081723,1.68533083709913e-05,1.00113704894504e-05
