BCL,BCC,BCL_Filtered,BCC_Filtered
-,-,-,-
-0.00142368086717611,0.00521806509602458,-4.90221628539616e-20,1.26142360625723e-20
-0.0014295102017826,0.00521371395669663,-4.50791190178178e-06,-2.93281065984855e-06
-0.00143457659689048,0.00521200926375444,-9.28166308539075e-06,-4.09700179128632e-06
-0.00143871315948446,0.0052113297707635,-1.34554555524629e-05,-4.3782299651604e-06
-0.00144335040112438,0.00520805151510546,-1.70195917382434e-05,-6.43453147681902e-06
-0.00145064601007974,0.00520060093406444,-2.22089090098579e-05,-1.18029689389569e-05
-0.00145833500971407,0.00519268543676647,-3.0470143327056e-05,-2.00506714647326e-05
-0.00146714457673696,0.00518162281403677,-3.92058475585685e-05,-3.04394154309813e-05
-0.00147372492991238,0.00516759187982034,-4.40889316049426e-05,-4.2666427232149e-05
-0.00147432097639566,0.00515416891301685,-4.38528608793991e-05,-5.51500401574406e-05
-0.0014712215346826,0.00514484674601833,-4.02296556841548e-05,-6.39774204595947e-05
-0.0014643908419842,0.00514311821121682,-3.39797230952691e-05,-6.54338064892789e-05
-0.00145586737727328,0.00514717132730313,-2.44070178018395e-05,-5.97154205707208e-05
-0.00144644984283744,0.00515472919671113,-1.2813953750253e-05,-5.08852553821785e-05
-0.00143523224802209,0.00516300232189907,-2.51483186028097e-06,-4.2666601610433e-05
-0.00142666109959251,0.00517010719597979,5.86506469504912e-06,-3.52145994649189e-05
-0.00141776808606196,0.00517665178636621,1.53189286250303e-05,-2.67130432987651e-05
-0.00140954264459268,0.0051855686417561,2.61927416913642e-05,-1.72697103433266e-05
-0.00140384444021251,0.0051920178647052,3.22560479710887e-05,-9.86057842276585e-06
-0.00140175827752103,0.00519682199936044,2.69891962751485e-05,-7.23332464658324e-06
-0.00142873534135433,0.00518949062761608,1.24029340575477e-05,-8.61897537305602e-06
-0.00143599518752069,0.00519177944611188,-2.1468346340894e-06,-9.80401577442941e-06
-0.00144345768949137,0.00519374639950671,-9.617114001056e-06,-6.25075656354486e-06
-0.0014473319916327,0.0052022460223583,-1.06193869341679e-05,3.5155876757009e-06
-0.0014458061126355,0.00521533520313115,-9.33223721013462e-06,1.6838691036636e-05
-0.00144321927089806,0.00522706539792212,-7.69615115732423e-06,2.92168707306229e-05
-0.00144083508496494,0.00523597033238234,-4.9121672039015e-06,3.83134408537096e-05
-0.00143569716427905,0.00524286062972907,-1.18984098334057e-07,4.55986334093152e-05
-0.00143064269010083,0.00524925024802984,6.18085162496298e-06,5.3232194498508e-05
-0.00142388352298042,0.00525587828492393,1.2114631534506e-05,5.97806481926471e-05
-0.0014203906905884,0.00525691540580484,1.49760169342959e-05,6.08809800369291e-05
-0.00142265566722486,0.00524984629451312,1.30537920645301e-05,5.46580302867325e-05
-0.00142868765763567,0.00523959429500069,7.55428098278627e-06,4.44589752837766e-05
-0.00143414744342252,0.00522899658852795,1.35511663147313e-06,3.47476703337987e-05
-0.00143958338735005,0.00522054464939503,-4.53954885783294e-06,2.60457195690313e-05
-0.00144629487075179,0.00521135361262283,-1.15189280344379e-05,1.6279148629256e-05
-0.00145543822380532,0.00519905121320791,-1.97567284327424e-05,5.91593528722207e-06
-0.0014609933770295,0.00519173176239322,-2.63378914380449e-05,-1.60849137358418e-06
-0.00146236428394105,0.00518968136249073,-2.85125775051076e-05,-4.91288606845828e-06
-0.00146136292584914,0.00518723757190928,-2.70789457020177e-05,-6.88142000487125e-06
-0.00145926484222799,0.00518128902800614,-2.47087150399673e-05,-1.02712049587701e-05
-0.00145540246101632,0.00518071682338219,-2.22701475013661e-05,-1.36900242691083e-05
-0.00145213612628794,0.00517990620016493,-1.88652612097217e-05,-1.4465073811965e-05
-0.00144798764276431,0.00517835647930839,-1.45147074350551e-05,-1.38838007862638e-05
-0.00144292124765642,0.00517702133518585,-1.03632074568725e-05,-1.63223530121494e-05
-0.00143876084320312,0.00517121584243869,-6.3373076524953e-06,-2.31204048442884e-05
-0.00143374213181389,0.00516350300094503,-7.94192900372261e-07,-3.01179277802995e-05
-0.00142432459737805,0.00516086847548893,6.9105388593556e-06,-3.25268122508389e-05
-0.00141679056982938,0.00516343147536704,1.49975598071163e-05,-3.05560423081096e-05
-0.00141116389102721,0.00516598255431548,2.10985328101156e-05,-2.854261535537e-05
-0.00140653857031694,0.00516537458690253,2.45505109481114e-05,-2.91064195512132e-05
-0.00140410670066516,0.00516464741019293,2.63137457914105e-05,-2.97874169703255e-05
-0.0014039517285795,0.00516891510301322,2.73498447385074e-05,-2.60868306926597e-05
-0.00140397557043884,0.00517808229792609,2.76269317675926e-05,-1.71789593331584e-05
-0.00140343912860388,0.00518875152997682,2.63319973932188e-05,-7.49153556849461e-06
-0.00140728958888588,0.0051935437437024,2.27729638579745e-05,-1.85233962898433e-06
-0.00141401299321729,0.00519712002260208,1.73640938053382e-05,6.23464366013258e-07
-0.00141854294649022,0.00520341427346553,1.17587819733559e-05,6.44983350407691e-06
-0.00142207154167125,0.00521843464484421,7.58558097223566e-06,2.0591596478142e-05
-0.00142518290431398,0.00523707897884124,5.04269795745455e-06,3.99660133746995e-05
-0.00142765053675476,0.00525350601992047,3.25476810935363e-06,5.53811952822676e-05
-0.00142793663906673,0.00525965721962793,2.06748191601034e-06,6.00918131365871e-05
-0.00142742403909111,0.00525485308497268,2.81130345492173e-06,5.55596125268071e-05
-0.00142332323928614,0.00524772436903264,6.83041782558847e-06,4.85940496294141e-05
-0.00141727932794567,0.00524481566219423,1.35325195082715e-05,4.38241851475848e-05
-0.00141072281662958,0.00524112017399789,2.02945346216183e-05,3.97108302209815e-05
-0.00140600212848199,0.00523281128602095,2.42801411971279e-05,3.14691879591386e-05
-0.00140619286335664,0.00521925718899114,2.42099905745147e-05,1.69997664151344e-05
-0.00141170033286216,0.00520248444095161,2.05308148819494e-05,-4.59866610956161e-07
-0.00141689785819637,0.00518850119045384,1.43329613635707e-05,-1.54683193564013e-05
-0.00142440804388571,0.00517843992581605,6.49018231613953e-06,-2.58199271770902e-05
-0.00143400439226654,0.00517002374947213,-2.27912039040418e-06,-3.43495329747018e-05
-0.00144433983828663,0.00516086847548893,-1.11780909603554e-05,-4.51296475637973e-05
-0.00145173081467931,0.00514792234587206,-1.96341489667856e-05,-5.85101570423468e-05
-0.001459121791072,0.0051364663324634,-2.74300563331986e-05,-7.06210667976491e-05
-0.00146731146975228,0.00512965948162433,-3.38281296734226e-05,-7.72975704034558e-05
-0.00147130498119026,0.00513113767690287,-3.68088881246681e-05,-7.73747102395468e-05
-0.00146646508374602,0.00513778955565629,-3.43107985786211e-05,-7.22123894829811e-05
-0.00146081456308452,0.00514522821576763,-2.67457809245496e-05,-6.34978201540504e-05
-0.00145264872626357,0.00515736372216724,-1.75726338089225e-05,-5.24987885385226e-05
-0.00144510277778523,0.00517134697266501,-1.06232252722023e-05,-4.07875114523699e-05
-0.0014416099453932,0.00518108637220182,-6.99569235109518e-06,-3.04924627710834e-05
-0.00144017943383333,0.00518785746025189,-4.85739237328609e-06,-2.33431722563335e-05
-0.00143792637812652,0.005194199394834,-1.89262981933382e-06,-1.92943619471716e-05
-0.00143369444809523,0.00519819290627199,2.50836054631554e-06,-1.57459924578858e-05
-0.00142872342042467,0.00520519049198571,7.12458135383235e-06,-8.30501504432802e-06
-0.00142631539263221,0.00522105724937065,1.03272367335567e-05,6.52110397116177e-06
-0.0014260054484609,0.00524358780643867,1.16080154420432e-05,2.82621408831716e-05
-0.0014253140345403,0.0052679184238862,1.19700796309476e-05,5.20134006425159e-05
-0.0014241696252924,0.00528728993459284,1.27488767910967e-05,7.1554736000604e-05
-0.00142461069969003,0.00530015261770204,1.39924131344262e-05,8.33795448994892e-05
-0.00142382391833209,0.00530490906863863,1.43742544892147e-05,8.81086898488271e-05
-0.00142557629499294,0.00530629189647984,1.290886577786e-05,8.86270188854816e-05
-0.00142827042509737,0.00530505211979461,1.02647706414541e-05,8.71824177040641e-05
-0.00143116721100612,0.00530124934323128,7.92596526328559e-06,8.39302475801598e-05
-0.0014332891364866,0.00529681475739567,6.42264514258627e-06,7.77392444498097e-05
-0.00143418320621152,0.0052865746788129,4.97370853070098e-06,6.8147372997442e-05
-0.00143679388980829,0.00527480872123293,2.67346697773343e-06,5.63277500196246e-05
-0.00144096621519126,0.0052630666055123,-6.47848521688147e-07,4.39252897471113e-05
-0.00144491204291058,0.00525016815961409,-4.82637636423918e-06,3.11882433895581e-05
-0.00145016917289312,0.00523602993703067,-9.98759054765474e-06,1.68972181619944e-05
-0.00145626076795225,0.00521948368665479,-1.62294163544273e-05,3.88119660861629e-07
-0.00146402129316457,0.00520222218049897,-2.27455802145413e-05,-1.67504601617316e-05
-0.00146807440925088,0.00518779785560357,-2.77530664214145e-05,-3.13616554560469e-05
-0.00147055396262133,0.00517760546073946,-2.97934729280132e-05,-4.11743436321492e-05
-0.00147024401845002,0.00517199070286695,-2.91864615972367e-05,-4.67310294941271e-05
-0.00146880158596048,0.00516754419610168,-2.77436651340956e-05,-5.09258056593251e-05
-0.00146771678136091,0.0051619890428775,-2.66979210459576e-05,-5.61155213453568e-05
-0.00146664389769101,0.0051566127035983,-2.53010312010414e-05,-6.12813140513922e-05
-0.00146313914436931,0.00515491993158578,-2.20005021757002e-05,-6.26860711878941e-05
-0.00145790585624611,0.0051585915779228,-1.6637201465792e-05,-5.81128284852058e-05
-0.00145218381000661,0.00516697199147773,-1.06517230549028e-05,-4.9798420255767e-05
-0.00144689091723507,0.00517389805161345,-5.23221050316114e-06,-4.19912662473748e-05
-0.00144104966169892,0.0051793936001893,-1.58300012644163e-07,-3.61229524279018e-05
-0.00143622168518434,0.00518460304645318,5.45972539787679e-06,-2.99626661198637e-05
-0.00142998703896922,0.00519268543676647,1.21831357804439e-05,-2.13208253259191e-05
-0.00142099865800134,0.0052029374362789,2.00271938607027e-05,-1.07470637951359e-05
-0.00141311892349237,0.0052117470033018,2.80977383235069e-05,-4.23943505302832e-07
-0.00140825518418879,0.00521922142620214,3.41572046763671e-05,7.64953108240667e-06
-0.00140573986802935,0.00522310764927314,3.58802349842248e-05,1.19768907366767e-05
-0.00140770682142418,0.00522205860746256,3.33348772469672e-05,1.22574713460369e-05
-0.00141282090025073,0.00521913797969448,2.9174727614184e-05,1.05855063351547e-05
-0.00141655215123607,0.00521782667743127,2.55096484908374e-05,9.74116605990809e-06
-0.00141974696038645,0.0052162531147154,2.1639924010166e-05,9.22248749265789e-06
-0.00142596968567191,0.0052110198265922,1.60042692061381e-05,5.57472874851423e-06
-0.00143213280630903,0.00520298511999757,9.34025916149159e-06,-1.55055571131683e-06
-0.00143771180139254,0.0051972511528284,4.26835069796547e-06,-6.51131373457691e-06
-0.00144025095941132,0.00519825251092032,2.17286941054362e-06,-3.9888960181364e-06
-0.00143905886644476,0.00520455868271343,2.12589574545729e-06,3.73450086542357e-06
-0.00143866547576579,0.00520962507782132,2.88145917895308e-06,9.48048093919687e-06
-0.00143871315948446,0.00520852835229208,4.35832279679972e-06,1.00534778360506e-05
-0.00143514880151443,0.00520588190590631,6.62422091473173e-06,8.44330448690265e-06
-0.00143232354118368,0.00520389111065215,8.55341052671232e-06,7.59366482249109e-06
-0.00143452891317182,0.00520105392939174,8.41996980934514e-06,6.66720523811121e-06
-0.0014367223642303,0.00519864590159928,5.70722408595003e-06,4.86592499115421e-06
-0.00143953570363138,0.0051976326225777,2.05330874711879e-06,4.8056814003357e-06
-0.00144163378725253,0.00519944460388688,1.11970778395951e-07,9.14857369657195e-06
-0.00144206294072049,0.00520614416635896,7.01155840170205e-07,1.62764890894012e-05
-0.00144178875933819,0.00521129400797451,8.11245943010738e-07,2.22976092381626e-05
-0.00144568690333884,0.00521342785438465,-4.22517750438153e-06,2.6144831819209e-05
-0.00145750054463747,0.00521575243566945,-1.52648945583021e-05,3.00570323901239e-05
-0.00146998175799738,0.00522043736102804,-2.69717265410908e-05,3.54638172209554e-05
-0.0014746905252153,0.00522512228638663,-3.26670352409472e-05,4.06876758967778e-05
-0.00147331961830375,0.00522546799334693,-3.10993056332934e-05,4.30846516620794e-05
-0.00146868237666383,0.00522344143530377,-2.65167738511877e-05,4.20374097357903e-05
-0.00146536835821678,0.00521982939361509,-2.24834674420464e-05,3.92619314567192e-05
-0.00146073111657686,0.00521724255187765,-1.83596031352061e-05,3.67823555397419e-05
-0.00145441302385408,0.005213201356721,-1.24677267448522e-05,3.49822861599017e-05
-0.00144834527065428,0.00521001846850028,-5.77947817653412e-06,3.25573433196945e-05
-0.0014431000616014,0.00520590574776564,-4.15241366559842e-07,2.8312250005842e-05
-0.0014386297129768,0.00519926578994189,3.64977334332815e-06,2.26744823938671e-05
-0.00143427857364884,0.00519211323214252,7.93695796578092e-06,1.69257467165292e-05
-0.0014298559087429,0.00518612892545038,1.23555043336882e-05,1.1234174610248e-05
-0.00142797240185573,0.00517933399554098,1.49832896950692e-05,4.42799292846122e-06
-0.00142706641120114,0.00516994030296447,1.48447244338038e-05,-4.11525127380588e-06
-0.00142897375994764,0.00516030819179465,1.31749181819724e-05,-1.31912864308027e-05
-0.00143077382032715,0.00515236885263734,1.17545581653218e-05,-2.07320713254148e-05
-0.00143095263427214,0.00514766008541942,1.1245122714442e-05,-2.56854687979802e-05
-0.00143090495055347,0.00514398843908241,1.12417975727981e-05,-2.90642112285732e-05
-0.00143132218309177,0.00513918430442716,1.08292780477498e-05,-3.34760855054772e-05
-0.0014329076667373,0.0051319959838388,8.97221170407907e-06,-4.08949085384108e-05
-0.00143709191304993,0.0051224950028953,5.3523469665325e-06,-5.00696839349387e-05
-0.00144114502913624,0.00511649877527349,9.38381120250583e-07,-5.71357428552647e-05
-0.00144423254991964,0.00511335164984176,-3.05808936813558e-06,-6.01541050959014e-05
-0.00144951352176151,0.00511086017554165,-6.6449714433202e-06,-6.17955410174413e-05
-0.00145220765186594,0.00510904819423247,-1.05677438402055e-05,-6.52314172270502e-05
-0.00145598658656994,0.00510700971525965,-1.46918579623292e-05,-6.84118104831131e-05
-0.00146087416773284,0.00510835678031187,-1.81535575481178e-05,-6.59148833077005e-05
-0.00146214970720707,0.00511835844030132,-2.09974673674732e-05,-5.67616120608663e-05
-0.00146592864191107,0.00512982637463965,-2.41214966580677e-05,-4.68268472252761e-05
-0.00146965989289641,0.00513572723482413,-2.73602822328018e-05,-4.20391270922916e-05
-0.00147047051611367,0.00513489276974754,-2.92433857445484e-05,-4.20427820498071e-05
-0.00147088774865197,0.00513601333713611,-2.92630226418346e-05,-4.22530399671898e-05
-0.00147116193003428,0.00514065057877604,-2.87772242030294e-05,-3.94142597163656e-05
-0.00147012480915337,0.00514792234587206,-2.86072789091633e-05,-3.28883079266362e-05
-0.00146837243249252,0.00515822202910316,-2.70562406316723e-05,-2.28740384158056e-05
-0.00146399745130524,0.00517132313080568,-2.15547783770717e-05,-1.03293181542989e-05
-0.00145308980066119,0.00518665344635567,-1.11972271297478e-05,2.51247925945211e-06
-0.0014382124804385,0.00519942076202755,3.48378981551292e-06,1.3873420502207e-05
-0.00142023571850274,0.00520819456626144,2.16280213830327e-05,2.37729677876789e-05
-0.00140200861704401,0.0052186134587892,4.06778342892848e-05,3.21016271266441e-05
-0.00138702400845432,0.00522605211890054,5.49908182080466e-05,3.71904112736698e-05
-0.00138301857608667,0.00522823364902935,5.91477221651482e-05,3.85849158180319e-05
-0.00138895519906015,0.00522856743505999,5.34589460917425e-05,3.94021829090674e-05
-0.0013994098543769,0.00523353846273055,4.38424167847897e-05,4.27856819728445e-05
-0.00140714653772989,0.00524152548560652,3.51761526703977e-05,4.7079783174317e-05
-0.00141595610475279,0.00524126322515388,2.68739891399859e-05,4.7848862787833e-05
-0.00142707833213081,0.0052375796578872,1.63586055079393e-05,4.42799512016477e-05
-0.00143915423388208,0.00523705513698191,4.5152975573848e-06,4.02438649687643e-05
-0.00144801148462364,0.00523651869514696,-4.95085576310799e-06,3.87381198529153e-05
-0.00145400771224545,0.00523604185796033,-1.02002726021875e-05,3.8436046668439e-05
-0.00145678528885754,0.00523514778823541,-1.21227302158228e-05,3.67393809409353e-05
-0.00145475873081438,0.00523428948129949,-1.07883179965586e-05,3.36656621806161e-05
-0.00144877442412224,0.00523287089066928,-4.41206988248081e-06,3.12131632697088e-05
-0.00143842705717248,0.00523213179303001,6.89477538582309e-06,3.05014137145536e-05
-0.00142619618333555,0.00523310930926259,1.88194738498541e-05,3.08569100090607e-05
-0.00141906746739551,0.00523512394637608,2.62729208061946e-05,3.08066854405228e-05
-0.00141823300231892,0.00523402722084684,2.79430036052571e-05,2.92266389846933e-05
-0.0014195562255118,0.0052311661977271,2.60251873265842e-05,2.61842265986042e-05
-0.00142408617878474,0.00522837670018534,2.26011556790178e-05,2.27766222092453e-05
-0.00142934330876728,0.00522614748633787,1.78618387973184e-05,1.92956878602248e-05
-0.00143547066661541,0.0052216652167836,1.09480585310618e-05,1.39490500853524e-05
-0.00144674786607908,0.00521223576141809,7.48153073471593e-07,4.95756481320771e-06
-0.00146193513047308,0.00520198376190566,-1.3500424398184e-05,-6.19203182315281e-06
-0.00147817143667766,0.00519334108789808,-3.04161062000633e-05,-1.54314462421376e-05
-0.00149364480338364,0.00518922836716344,-4.54471357555935e-05,-2.03700255020236e-05
-0.00150278815643717,0.00518696339052697,-5.36489449446133e-05,-2.21773438159042e-05
-0.00150334844013145,0.00518668920914466,-5.39561251179823e-05,-2.28318810824524e-05
-0.00149871119849153,0.00518796474861889,-4.93305731368563e-05,-2.24226841448676e-05
-0.00149219044996443,0.00519020588339602,-4.26305292827155e-05,-2.02140570826534e-05
-0.00148465642241576,0.00519336492975741,-3.42216544722341e-05,-1.68704236464528e-05
-0.00147516736240192,0.00519647629240014,-2.4168182725603e-05,-1.41568485354554e-05
-0.00146509417683447,0.00519768030629637,-1.45217170470575e-05,-1.29798803471419e-05
-0.00145829924692507,0.00519810945976433,-7.66847390804473e-06,-1.26540716468139e-05
-0.00145598658656994,0.0051996114969022,-3.56121221091655e-06,-1.18762524940389e-05
-0.00145226725651427,0.00519989759921417,-3.06150973996959e-07,-1.00055294149944e-05
-0.00144833334972461,0.0052033189060282,3.08229092811437e-06,-7.49692760078239e-06
-0.00144664057771209,0.00520683558027956,5.99196554440289e-06,-4.93884926201287e-06
-0.00144552001032352,0.0052087310080964,7.88980632197049e-06,-1.53780788322673e-06
-0.00144373187087368,0.00521423847760191,9.19577929019364e-06,4.41291059323115e-06
-0.00144221791280615,0.00522376330040474,1.04169120078887e-05,1.25459659499421e-05
-0.00144258746162578,0.00523014099777585,1.1519149904197e-05,1.90676168964737e-05
-0.00144209870350949,0.00522954495129257,1.22964737815425e-05,2.02507188358822e-05
-0.00144102581983959,0.00522652895608717,1.25765709252601e-05,1.64980844277347e-05
-0.00144188412677551,0.00522153408655727,1.21753161164361e-05,1.07204709472294e-05
-0.00144387492202967,0.00521338017066599,1.15061336542957e-05,3.44846651771603e-06
-0.00144276627557077,0.00520166189680468,1.19509874211795e-05,-7.24923066739574e-06
-0.00144051321986396,0.00518897802764046,1.43866632644152e-05,-2.07844802523097e-05
-0.00143773564325187,0.00517766506538779,1.73948399909868e-05,-3.24515513316922e-05
-0.00143747338279923,0.00517097742384538,1.84472243929629e-05,-3.81635603439913e-05
-0.00143870123855479,0.00516999990761279,1.72445962898772e-05,-3.81368982560243e-05
-0.00143903502458543,0.00517518551201734,1.61926940585669e-05,-3.47602813247264e-05
-0.00143982180594336,0.00517935783740031,1.6464291195062e-05,-2.99616544964661e-05
-0.00144182452212718,0.00518112213499082,1.5101203703993e-05,-2.64200094038222e-05
-0.00144776114510066,0.00518151552566978,8.10051157230708e-06,-2.77304082526704e-05
-0.0014605761444912,0.00517494709342403,-4.0007673328735e-06,-3.390860188823e-05
-0.00147272357182047,0.0051691296797472,-1.57178112399477e-05,-3.91729369586758e-05
-0.00147945889708155,0.00516961843786349,-2.23223986488362e-05,-3.80960869383195e-05
-0.00148097285514908,0.00517665178636621,-2.42387602590462e-05,-3.25061555203788e-05
-0.00148178347836634,0.00517970354436061,-2.46791418853612e-05,-2.83878409680153e-05
-0.00148226031555297,0.0051806095350152,-2.44905696167775e-05,-2.69379538032873e-05
-0.00147895821803559,0.00518561632547476,-2.15970994136872e-05,-2.30873642396514e-05
-0.00147250899508649,0.00519505770176993,-1.52618076861349e-05,-1.29795863832026e-05
-0.0014663697163087,0.00520931513365001,-8.35749294935734e-06,1.43693023732935e-06
-0.00146181592117643,0.00522412092829471,-4.09532959406414e-06,1.63545404726164e-05
-0.00146002778172659,0.00523912937874373,-2.06188260330924e-06,3.05306572153595e-05
-0.00145715483767717,0.00525109799212801,6.50073254466129e-07,4.34880295931649e-05
-0.00145281561927888,0.00526027710797054,5.12230002537125e-06,5.24952762630945e-05
-0.00144921549851987,0.00526284010784865,9.48939649136368e-06,5.46203500161725e-05
-0.00144537695916754,0.00525851281038003,1.21191858115802e-05,5.05437994051612e-05
-0.00144474514989526,0.00525181324790795,1.37975163722149e-05,4.39324223001252e-05
-0.00144226559652481,0.00524528057845119,1.5931405116003e-05,3.77655208827267e-05
-0.00144006022453667,0.00524152548560652,1.83340834882329e-05,3.30099184148588e-05
-0.00143806942928251,0.00523773462997285,2.01279943534127e-05,2.9943299615133e-05
-0.00143663891772264,0.00523610146260866,2.15006317682429e-05,2.86489254639988e-05
-0.00143569716427905,0.00523651869514696,2.28445080136904e-05,2.83536622909855e-05
-0.00143525608988143,0.00523588688587468,2.30202954849735e-05,2.78342691014536e-05
-0.00143749722465856,0.00523409874642484,2.04832373822983e-05,2.65531498436122e-05
-0.00144220599187648,0.005232310606975,1.59409712970279e-05,2.45150714782885e-05
-0.00144642600097811,0.00522912771875427,1.19778196907924e-05,2.1417936174771e-05
-0.00144810685206096,0.00522503883987897,9.75170397818043e-06,1.69926204236093e-05
-0.00144978770314382,0.00521929295178014,7.76393859826601e-06,1.1853308876649e-05
-0.00145365008435548,0.0052143457659689,4.48243664321509e-06,7.09827984219118e-06
-0.00145710715395851,0.00521155626842715,5.88250542288059e-07,3.49065885009824e-06
-0.00145945557710264,0.00520913631970503,-2.40648118716403e-06,1.79548586598541e-06
-0.00146205433976974,0.00521006615221895,-4.58227950624054e-06,2.93859336572418e-06
-0.00146459349778852,0.0052135828264703,-7.40799329520856e-06,6.26197098402089e-06
-0.00146844395807051,0.00521554977986513,-1.17523412147623e-05,8.18634332447904e-06
-0.00147366532526406,0.00521162779400514,-1.71299341795052e-05,4.59168233051292e-06
-0.00147900590175425,0.00520173342238268,-2.24847181727065e-05,-5.1359084420178e-06
-0.00148273715273959,0.00518881113462514,-2.68347210297755e-05,-1.77685368901467e-05
-0.00148525246889904,0.00517731935842749,-2.94974629881862e-05,-3.00305044352923e-05
-0.0014861346176943,0.00516501695901257,-3.05189353805309e-05,-4.11316248625866e-05
-0.00148543128284402,0.00515517027110876,-3.0688202335587e-05,-5.11706861188718e-05
-0.00148549088749235,0.00514757663891176,-3.05024319218098e-05,-5.89975803987901e-05
-0.00148373851083151,0.00514314205307615,-2.93695954761419e-05,-6.31449940741823e-05
-0.00148012646914282,0.00514171154151628,-2.63602793278643e-05,-6.38106501167344e-05
-0.00147502431124594,0.00514407188559007,-2.13757665740593e-05,-6.2282186320781e-05
-0.0014682055394772,0.00514683754127249,-1.5050065439568e-05,-5.87526382661433e-05
-0.00146080264215485,0.00515342981537758,-8.0300573126743e-06,-5.21251509571465e-05
-0.00145303019601287,0.00516322881956272,-1.03477948647253e-06,-4.20364274870895e-05
-0.00144701012653173,0.00517594845151594,4.97481451637379e-06,-2.99086751636172e-05
-0.00144186028491618,0.00518695146959731,9.63061882926617e-06,-1.77227916948158e-05
-0.00143667468051163,0.00519819290627199,1.37031090795987e-05,-6.74069885648682e-06
-0.0014332176109086,0.00520757467791883,1.77646403087661e-05,2.16583678555142e-06
-0.00142884262972132,0.00521270067767505,2.06993949259183e-05,8.1096795253702e-06
-0.00142862805298734,0.00521570475195079,2.08304995857116e-05,1.14157945843804e-05
-0.00143084534590515,0.00521973402617776,1.84398559017449e-05,1.4932622232702e-05
-0.00143251427605833,0.00522713692350012,1.58369060346233e-05,2.25414805203939e-05
-0.00143307455975262,0.00523957045314136,1.46960548360861e-05,3.53207059036581e-05
-0.00143377789460289,0.00525332720597548,1.44892943331925e-05,4.95417242297012e-05
-0.00143297919231529,0.00526367457292524,1.38480753428899e-05,5.9304025677607e-05
-0.00143444546666416,0.00526599915421004,1.2251388288124e-05,6.13492614889148e-05
-0.00143681773166762,0.00526018174053322,9.78877181829988e-06,5.7072820993692e-05
-0.00143982180594336,0.00525413782919275,6.3794150717148e-06,5.02076015786882e-05
-0.00144314774532007,0.00524781973646997,2.1739983859495e-06,4.35058693499583e-05
-0.00144745120092936,0.00524166853676251,-1.90546234844449e-06,3.79012705827771e-05
-0.00145016917289312,0.0052368167183886,-4.90644986389292e-06,3.3710942676123e-05
-0.00145155200073433,0.00523498089522009,-6.88751917709298e-06,3.12314088926689e-05
-0.00145342358669183,0.00523419411386216,-8.76727467984599e-06,3.00078359508495e-05
-0.00145599850749961,0.0052315119046874,-1.14767122832383e-05,2.84382538400107e-05
-0.0014598132049926,0.00522805483508437,-1.5531380830881e-05,2.47578615035348e-05
-0.00146510609776414,0.00522185595165825,-2.08155203364925e-05,1.8382684984672e-05
-0.00147031554402802,0.00521414311016459,-2.62331066963096e-05,1.02163692017619e-05
-0.00147423752988801,0.00520454676178376,-2.99969813842095e-05,1.80743438819248e-06
-0.00147513159961293,0.0051972511528284,-3.08323586869823e-05,-5.82402682048474e-06
-0.00147290238576546,0.00519088537638696,-2.87902882281665e-05,-1.28510981085459e-05
-0.00146954068359975,0.0051824811209727,-2.4802176256843e-05,-2.0271137221501e-05
-0.0014644266047732,0.00517442257251874,-1.98616506447883e-05,-2.86970513635702e-05
-0.00145938405152464,0.00516531498225421,-1.46038211012074e-05,-3.74631196977037e-05
-0.00145432957734642,0.00515762598261988,-8.88521800106585e-06,-4.5076463100254e-05
-0.0014473319916327,0.00515277416424597,-1.66200635397232e-06,-5.0496984464556e-05
-0.00143815287579017,0.00514813692260605,7.69712605798738e-06,-5.37588892896688e-05
-0.00142859229019834,0.00514705211800647,1.77098148345304e-05,-5.54803983609838e-05
-0.00142189272772626,0.00514631302036721,2.5682355554332e-05,-5.62077273000042e-05
-0.0014165402303064,0.00514549047622028,3.09366445283122e-05,-5.62834546965378e-05
-0.00141197451424447,0.00514621765292988,3.57126901241036e-05,-5.58748653976503e-05
-0.00140759953305718,0.0051463845459452,4.17809625925449e-05,-5.4787169755913e-05
-0.00140264042631629,0.0051494363039396,4.75692337269222e-05,-5.23009353353877e-05
-0.00139926680322092,0.00515409738743886,5.02364232125484e-05,-4.72136794896449e-05
-0.00140225895656699,0.00516206056845549,4.93523592277732e-05,-3.80743214070365e-05
-0.00140621670521597,0.00517698557239685,4.63685047072068e-05,-2.4011828178757e-05
-0.00141174801658082,0.00519390137159236,4.12760044296977e-05,-6.20941855628344e-06
-0.00142099865800134,0.00521141321727116,3.25872800352502e-05,1.16466422047666e-05
-0.00143458851782015,0.00522489578872298,2.08877863407393e-05,2.57144440774755e-05
-0.00144637831725945,0.00523477823941578,9.80434889588279e-06,3.54114262604078e-05
-0.00145498522847803,0.00524187119256682,2.36911475209127e-06,4.34836567964987e-05
-0.00145931252594665,0.00524991782009112,-1.67775109990516e-06,5.18215462412143e-05
-0.00146373519085259,0.00525602133607992,-3.91149178405718e-06,5.82695598767391e-05
-0.00146559485588043,0.00525621207095456,-4.52139643371278e-06,5.9190164275823e-05
-0.00146416434432056,0.00525156290838497,-3.25034604985671e-06,5.47155022879369e-05
-0.00146453389314019,0.0052451375272952,-1.51823305857978e-06,4.93300345636024e-05
-0.00146614321864505,0.00524233610882378,-1.46600049501931e-06,4.65267685848504e-05
-0.00146831282784419,0.00523940356012604,-3.54123831038784e-06,4.45088115734553e-05
-0.00147334346016308,0.00523295433717694,-6.9474060775812e-06,3.85234973972871e-05
-0.00148009070635383,0.00522015125871606,-1.20522817044951e-05,2.65670048989594e-05
-0.00148863801292408,0.00520511896640771,-2.01262322658678e-05,1.1437820024242e-05
-0.00150027284027772,0.00519018204153669,-3.02961514628435e-05,-2.2480804274015e-06
-0.00151025065840785,0.00517993004202426,-3.87582741940373e-05,-1.15090691360155e-05
-0.00151406535590085,0.00517658026078822,-4.22680647309512e-05,-1.57096642595982e-05
-0.00151499518841476,0.00517468483297138,-4.13579227202197e-05,-1.58056346325845e-05
-0.00151331433733191,0.00517578155850062,-3.88687755675955e-05,-1.3788622612783e-05
-0.00151137122579641,0.00517854721418304,-3.59018601601127e-05,-1.16445289340969e-05
-0.00150710353297612,0.0051794293629783,-3.06030579814657e-05,-9.63254801520409e-06
-0.00149848470082788,0.00518173010240377,-2.10683509163294e-05,-6.11054501103828e-06
-0.00148683795254457,0.00518806011605621,-8.31506412962071e-06,3.89202602219333e-09
-0.00147486933916028,0.00519453318086464,4.38807755280936e-06,7.13865390553035e-06
-0.00146563061866943,0.00519918234343423,1.46590361569745e-05,1.26255176890209e-05
-0.00145798930275376,0.00520248444095161,2.25236620770615e-05,1.61393082106053e-05
-0.00145317324716885,0.00520553619894601,2.86826094029737e-05,2.01238003118822e-05
-0.00145059832636108,0.00521173508237213,3.22622996314512e-05,2.621920757564e-05
-0.00145088442867305,0.00521729023559631,3.13247251492045e-05,3.23249184087544e-05
-0.0014580131446131,0.00521836311926622,2.5428742891921e-05,3.42925809166243e-05
-0.00146811017203988,0.0052144172915469,1.66276930769452e-05,3.03467500454408e-05
-0.00147674092511779,0.00520719320816953,7.6460960390443e-06,2.31343195707958e-05
-0.00148383387826883,0.00520049364569745,3.76099728953066e-10,1.7350680689158e-05
-0.00149151095697349,0.00519896776670025,-5.6453524942942e-06,1.56605166006794e-05
-0.00149440774288224,0.0051995399713242,-8.50983495540181e-06,1.68062293014717e-05
-0.00149304875690036,0.00520007641315916,-8.41287195018973e-06,1.72147374735329e-05
-0.00149265536622139,0.00519722731096907,-6.87431873619301e-06,1.42248522731711e-05
-0.0014921666081051,0.00519008667409937,-5.97135798414758e-06,7.86716520073908e-06
-0.00149179705928547,0.00518164665589611,-6.07676429034465e-06,-2.2852904919883e-07
-0.00149120101280218,0.00517458946553406,-5.99004960265097e-06,-9.15719286415378e-06
-0.0014909864360682,0.00516264469400911,-5.36116108558607e-06,-1.94925326007255e-05
-0.00149118909187252,0.00514955551323625,-5.51948915318428e-06,-3.20073918500262e-05
-0.00149238118483908,0.005137229271962,-7.50702613998183e-06,-4.65510181155375e-05
-0.00149558791491913,0.00512080223088278,-1.08115584192606e-05,-6.23607550613025e-05
-0.0014990330635925,0.0051038745107576,-1.47879923927768e-05,-7.83796663557578e-05
-0.00150396832847406,0.0050905230695321,-1.97253201097283e-05,-9.25197672043877e-05
-0.00150896319800396,0.00508339435359206,-2.52135934246e-05,-0.000101641649039596
-0.00151146659323374,0.00507930547471675,-2.89620861050983e-05,-0.000103712107607352
-0.00151199111413903,0.00508413345123133,-2.92593663134631e-05,-9.9736621751262e-05
-0.00150985726772888,0.00509302646476188,-2.77326646237265e-05,-9.23888722836619e-05
-0.00150831946780202,0.0051019671620111,-2.7360848000356e-05,-8.30708031473371e-05
-0.0015088797514963,0.00511344701727909,-2.80383331574868e-05,-7.18309806282129e-05
-0.00150605449116555,0.00512579710041267,-2.6545338974999e-05,-5.99077384107131e-05
-0.00150085696583134,0.00513715774638401,-2.1163936886383e-05,-4.98686703796506e-05
-0.00149186858486346,0.00514522821576763,-1.37713096535561e-05,-4.19762168734071e-05
-0.00148411998058081,0.00515438348975083,-6.47020667417515e-06,-3.22996167960251e-05
-0.00147577532981487,0.00517182380985163,1.26073313101469e-06,-1.66012750597537e-05
-0.00146538027914645,0.00519396097624069,1.02875290623915e-05,4.50784739678592e-06
-0.00145671376327954,0.00521442921247656,1.89044852568049e-05,2.60908286059818e-05
-0.00144946583804285,0.00523393185340952,2.48154332843958e-05,4.43230913039175e-05
-0.00144436368014596,0.00525114567584668,2.87865017251145e-05,5.97212876798256e-05
-0.00143948801991272,0.00526548655423442,3.34798756473297e-05,7.48304589370719e-05
-0.00143293150859663,0.00528116257674471,3.89949602251453e-05,9.03182751706975e-05
-0.00142866381577634,0.00529705317598898,4.22604576198406e-05,0.000104053124694028
-0.00142837771346436,0.0053059938732382,4.11870866485944e-05,0.000113037911372232
-0.00143282422022964,0.00530841382196032,3.70921387236645e-05,0.000115618609183377
-0.00143609055495802,0.00530657799879181,3.23276065086414e-05,0.000112497887269987
-0.00143965491292804,0.00530085595255231,2.76253524212828e-05,0.000106133061219813
-0.00144380339645168,0.00529412062729124,2.28551894846336e-05,9.87268349361183e-05
-0.00144793995904565,0.00528570445094731,1.8546094648637e-05,9.05667428493117e-05
-0.00145014533103379,0.0052766564653311,1.50950382424273e-05,8.06485820446668e-05
-0.00145217188907694,0.00526610644257703,1.16668689013758e-05,6.85976533254018e-05
-0.00145663031677188,0.00525190861534528,7.46813638143568e-06,5.50563532422773e-05
-0.00145972975848495,0.00523785383926951,3.45333292603532e-06,4.04659138026767e-05
-0.00146074303750652,0.00522313149113247,1.3620323858474e-06,2.49492305778803e-05
-0.00146007546544525,0.00520888598018205,1.33005286120632e-06,9.58292391709627e-06
-0.00145965823290695,0.00519467623202063,1.51300183458475e-06,-3.93099074510923e-06
-0.00146048077705388,0.00518344671627561,-4.96184519357015e-08,-1.56277343722831e-05
-0.00146354445597794,0.00517261059120957,-3.8866751315611e-06,-2.7691589969417e-05
-0.00146799096274322,0.00515917570347641,-9.06539303746383e-06,-4.12337116456239e-05
-0.0014727831764688,0.00514657528081985,-1.3966725452262e-05,-5.39287278921451e-05
-0.00147559651586989,0.00513784916030461,-1.73511410700816e-05,-6.2374302727637e-05
-0.00147657403210247,0.00513603717899544,-1.92899925954601e-05,-6.5877063228166e-05
-0.00147798070180301,0.00513554842087915,-2.08225615441659e-05,-6.63746460789115e-05
-0.00147918471569924,0.00513557226273848,-2.22984015423977e-05,-6.54957655509071e-05
-0.00147877940409061,0.00513832599749124,-2.26074565521726e-05,-6.35405065205171e-05
-0.00147641906001681,0.00514254600659287,-2.06708683322589e-05,-6.07541235965811e-05
-0.00147273549275014,0.00514476329951068,-1.71295831750449e-05,-5.747079112518e-05
-0.00146917113478012,0.00514923364813528,-1.37178609727951e-05,-5.30811342917533e-05
-0.00146572598610675,0.005156266996638,-1.13266687948164e-05,-4.69221433794323e-05
-0.00146424779082822,0.00516308576840673,-9.49942850541463e-06,-4.03722626015688e-05
-0.00146234044208172,0.005167675326328,-7.51914327753772e-06,-3.5893814760028e-05
-0.00145856150737771,0.00516935617741085,-5.07766855260296e-06,-3.32779195083502e-05
-0.00145597466564027,0.00517528087945466,-2.01158025878133e-06,-2.87910675270836e-05
-0.00145241030767025,0.00518516333014746,1.67939001648983e-06,-1.92477118382529e-05
-0.00144820221949829,0.00519760878071837,5.37733433523651e-06,-5.6528168669009e-06
-0.00144472130803593,0.00521222384048842,8.06029890807351e-06,8.04670957424299e-06
-0.00144454249409094,0.00522246391907119,9.19995793725525e-06,1.84334269840625e-05
-0.00144430407549763,0.00522877009086431,9.14304980675766e-06,2.3982552590987e-05
-0.00144412526155265,0.00522904427224661,8.66679578985109e-06,2.47130762809314e-05
-0.00144435175921629,0.00522576601658857,8.50478559660309e-06,2.21716911119465e-05
-0.00144426831270863,0.00522410900736505,9.1110069139085e-06,1.88255992162205e-05
-0.00144281395928943,0.005220866514496,1.03456136327184e-05,1.60155778903741e-05
-0.0014412642384329,0.00521729023559631,1.1380432100317e-05,1.31434878790282e-05
-0.00144174107561952,0.00521442921247656,1.13123447789643e-05,9.81711475701708e-06
-0.0014431715871794,0.00521265299395639,9.95803945195997e-06,7.54874862727969e-06
-0.00144552001032352,0.00521279604511237,7.94784637440004e-06,7.8580042596592e-06
-0.00144662865678243,0.00521465571014021,6.17142241897048e-06,9.8529094264259e-06
-0.00144784459160832,0.00521576435659911,5.06661161505555e-06,1.15433355655414e-05
-0.00145019301475245,0.00521804125416525,3.92868967504465e-06,1.2627274446529e-05
-0.00145246991231858,0.00521918566341315,8.83271656542062e-07,1.38131710573873e-05
-0.00145838269343273,0.00521824390996956,-5.52723207599547e-06,1.40069433437248e-05
-0.00146851548364851,0.00521521599383449,-1.41995423423213e-05,1.08049179336337e-05
-0.00147585877632253,0.00520991118013329,-2.17596914198515e-05,4.13181815430155e-06
-0.00147918471569924,0.00520219833863964,-2.57891140501667e-05,-2.75243434860392e-06
-0.0014815569807027,0.00519721539003941,-2.70544296436402e-05,-6.60227870641654e-06
-0.00148216494811564,0.00519787104117102,-2.76545689168534e-05,-7.08634017784438e-06
-0.00148209342253765,0.00519913465971557,-2.77694115368019e-05,-6.00286210678277e-06
-0.0014804125714548,0.00519952805039454,-2.55924785046773e-05,-5.14613613295806e-06
-0.00147513159961293,0.00519845516672463,-2.00591883586198e-05,-5.31222577147572e-06
-0.00146729954882261,0.0051983955620763,-1.21631645221555e-05,-5.86632802937852e-06
-0.00145875224225236,0.00520026714803381,-3.58402800246914e-06,-4.89600120499957e-06
-0.0014511466891257,0.00520275862233392,4.6418702092993e-06,-1.31922096672661e-06
-0.00144438752200529,0.00520578653846899,1.18937660803202e-05,2.92686378741608e-06
-0.00143740185722124,0.00520890982204138,1.76880406483172e-05,4.70892348163171e-06
-0.00143476733176513,0.00520898134761937,2.21558676157742e-05,4.16905056508597e-06
-0.00143077382032715,0.0052075865988485,2.59896085549259e-05,5.11978535134484e-06
-0.00142682799260783,0.00521271259860471,2.95206920675873e-05,9.90894601258729e-06
-0.00142450341132304,0.00521974594710743,3.23622268782286e-05,1.60893493276071e-05
-0.00142372855089477,0.00522332222600712,3.39086881075569e-05,1.98142540107452e-05
-0.00142393120669909,0.00522223742140755,3.34680288121635e-05,2.06136252960817e-05
-0.00142745980188011,0.00522283346789083,3.02123754766411e-05,2.07579426319699e-05
-0.0014332176109086,0.00522450239804401,2.42486791934113e-05,2.14709786250538e-05
-0.00144093045240226,0.00522394211434973,1.77047420195756e-05,2.22697435086682e-05
-0.00144519814522255,0.00522427590038037,1.32632350360984e-05,2.3123693611155e-05
-0.00144686707537574,0.00522561104450292,1.1245542148235e-05,2.45733250410732e-05
-0.00144891747527823,0.00522730381651543,9.52797331390519e-06,2.57369832216888e-05
-0.00145292290764588,0.00522521765382395,6.7535454021362e-06,2.44492411918759e-05
-0.00145493754475937,0.00521967442152944,3.9569398828502e-06,1.99024541397327e-05
-0.00145640381910824,0.0052136901148373,2.16226195512046e-06,1.37566432311469e-05
-0.0014594674980323,0.00520892174297105,1.839403807289e-07,8.40735418843482e-06
-0.0014636994280636,0.00520424873854212,-3.55550127005618e-06,5.23988384870579e-06
-0.0014670968930183,0.00520317585487222,-8.35381791396101e-06,4.28514566090806e-06
-0.00147225865556351,0.0052026274921076,-1.24169148229462e-05,3.99650316241715e-06
-0.00147589453911153,0.00520049364569745,-1.59430893079466e-05,1.39014025305788e-06
-0.00148044833424379,0.0051919463391272,-2.06972118141194e-05,-5.75699682021575e-06
-0.00148646840372493,0.00518128902800614,-2.65288262595705e-05,-1.61836155498383e-05
-0.00149012812913228,0.00517216951681194,-3.06441732161578e-05,-2.58576566421576e-05
-0.00149116525001319,0.00516475469855992,-3.12154208645511e-05,-3.20140222222633e-05
-0.00149037846865526,0.00516173870335452,-2.99368151206703e-05,-3.54907944879904e-05
-0.00148875722222073,0.00515754253611222,-2.96475478434019e-05,-3.85973110636837e-05
-0.00149018773378061,0.00515458614555515,-3.05572894209864e-05,-4.18107849478994e-05
-0.00149053344074091,0.00515270263866798,-3.0362522526821e-05,-4.35207691959874e-05
-0.00148702868741922,0.00515296489912062,-2.75324569672022e-05,-4.24873169501133e-05
-0.00148175963650701,0.00515573055480305,-2.28570924096784e-05,-3.96784744367045e-05
-0.00147715815765608,0.00515791208493185,-1.76861714606859e-05,-3.76025853029057e-05
-0.00147159108350224,0.00515662462452797,-1.21781627386224e-05,-3.79874418701821e-05
-0.00146474846987417,0.00515491993158578,-6.05578951911999e-06,-4.00111857189474e-05
-0.0014583946143624,0.00515371591768956,1.37357141132587e-09,-4.08858912190772e-05
-0.00145390042387846,0.0051558855268887,4.98687000465249e-06,-3.84135664059094e-05
-0.0014488936334189,0.00516121418244923,9.19717449467712e-06,-3.28007745476098e-05
-0.00144418486620098,0.00516845018675626,1.38727325893632e-05,-2.57418730908079e-05
-0.00143853434553947,0.00517590076779728,1.8982361007012e-05,-1.82154243361648e-05
-0.00143480309455413,0.00518356592557227,2.26294057011287e-05,-9.82719927918699e-06
-0.00143400439226654,0.00519363911113972,2.34638137806209e-05,-5.86490020203947e-08
-0.00143381365739189,0.00520429642226079,2.27135604446613e-05,1.04950260325167e-05
-0.00143377789460289,0.00521380932413395,2.25588246230867e-05,2.01027120625201e-05
-0.00143358715972824,0.00522016317964573,2.2991452081885e-05,2.69797359945209e-05
-0.00143373021088423,0.00522425205852104,2.18434037609043e-05,3.10764612784527e-05
-0.00143758067116622,0.00522952110943324,1.80739240186503e-05,3.519138733501e-05
-0.00144144305237788,0.00523644716956897,1.35154292041037e-05,4.31631046855279e-05
-0.00144430407549763,0.00524876148991355,1.06047390342944e-05,5.57146301324427e-05
-0.00144518622429289,0.00526250632181801,9.50185817798732e-06,6.87107186210301e-05
-0.00144543656381587,0.0052713516516299,8.48531645349653e-06,7.67577710000257e-05
-0.00144718894047671,0.00527107747024759,6.4353477788388e-06,7.7999173535754e-05
-0.00145030030311944,0.00526803763318286,3.668938658533e-06,7.41650840539622e-05
-0.0014522553355846,0.00526145728000744,5.56845350103303e-07,6.68380089507533e-05
-0.00145629653074125,0.0052504423409964,-3.45364294446969e-06,5.58970345953843e-05
-0.00146181592117643,0.00523583920215602,-9.0374299620676e-06,4.16906955839556e-05
-0.00146775254414991,0.00522135527261229,-1.57985177304073e-05,2.65553763995566e-05
-0.00147448786941098,0.00520852835229208,-2.22294672091723e-05,1.32101062480796e-05
-0.00147836217155231,0.00519821674813132,-2.67032474439207e-05,2.7941144023886e-06
-0.0014799595761275,0.005190491985708,-2.85197244628316e-05,-5.05618589379563e-06
-0.00147944697615188,0.00518418581391488,-2.82388994538836e-05,-1.15027633984221e-05
-0.00147836217155231,0.00517816574443374,-2.70544051412132e-05,-1.84838449962839e-05
-0.00147665747861013,0.00516877205185724,-2.57496819052025e-05,-2.80095367140157e-05
-0.00147466668335597,0.00515671999196529,-2.42065842312031e-05,-4.01643398591161e-05
-0.0014723659439305,0.00514521629483797,-2.16526992405248e-05,-5.20402570616747e-05
-0.00146796712088389,0.0051387551509592,-1.70149730346702e-05,-5.93145245206485e-05
-0.0014594317352433,0.00513945848580947,-9.39938969362817e-06,-5.92341478912295e-05
-0.00144951352176151,0.00514535934599396,7.4996985008492e-07,-5.28019563327388e-05
-0.00143994101524001,0.00515465767113314,1.07977342426147e-05,-4.46766856893183e-05
-0.00143295535045596,0.00516002208948267,1.73936656047415e-05,-3.99288697536061e-05
-0.00143069037381949,0.00516088039641859,1.95437520331004e-05,-3.92985936987306e-05
-0.00143097647613147,0.00516217977775215,1.93686430747543e-05,-3.81659149137606e-05
-0.0014317274947004,0.00516935617741085,1.90596468811071e-05,-3.20243849804419e-05
-0.00143260964349566,0.00517935783740031,1.81292734877839e-05,-2.2446827954964e-05
-0.0014355064294044,0.00518690378587864,1.50555379042612e-05,-1.50352113061429e-05
-0.0014397383594357,0.00519157679030757,1.10315279985755e-05,-1.14024600741454e-05
-0.00144134768494056,0.00519645245054081,1.02753463951853e-05,-6.55365343814435e-06
-0.00143507727593644,0.00520805151510546,1.61368434562619e-05,4.17009944716863e-06
-0.00142353781602012,0.00522255928650852,2.77348640445814e-05,1.83731330712154e-05
-0.00141154536077651,0.00523422987665116,4.06054511242772e-05,2.94018076153368e-05
-0.00140206822169234,0.00523951084849303,5.00116586981467e-05,3.4089234277949e-05
-0.00139863499394864,0.0052402141833433,5.37989302621443e-05,3.49590721989166e-05
-0.00139974364040754,0.00524230034603479,5.30212238195661e-05,3.56917601337856e-05
-0.00140303381699525,0.00524418385292195,4.99589220865504e-05,3.71296160820181e-05
-0.0014086008911491,0.00524383814596165,4.48872128884551e-05,3.74804696785713e-05
-0.00141897209995819,0.00524188311349649,3.50126636267397e-05,3.39296792554413e-05
-0.00143651970842598,0.0052318933744367,1.76336222115499e-05,2.37946790153737e-05
-0.00146000393986725,0.00521494181245219,-5.62399980949375e-06,6.44783052530688e-06
-0.00148378619455017,0.00519355566463206,-2.87688696906245e-05,-1.47809454761491e-05
-0.00150184640299358,0.00517513782829868,-4.58628520285882e-05,-3.3847342589661e-05
-0.00151009568632219,0.00516407520556898,-5.47527290785417e-05,-4.60719040700225e-05
-0.00151283750014529,0.00515844852676681,-5.67509030245674e-05,-5.07479401066785e-05
-0.00151140698858541,0.00515941412206972,-5.43183191408502e-05,-5.0222613570335e-05
-0.00150709161204646,0.00516270429865743,-4.97789580222631e-05,-4.77425306464959e-05
-0.00150228747739121,0.00516485006599725,-4.50323064224486e-05,-4.58906224223057e-05
-0.00149890193336618,0.00516483814506758,-4.11860721286367e-05,-4.49832239909577e-05
-0.00149722108228332,0.00516871244720891,-3.84374995663284e-05,-4.21313921756242e-05
-0.00149583825444211,0.00517730743749782,-3.6406758438411e-05,-3.35282756355746e-05
-0.00149240502669841,0.0051916006321669,-3.40268332098757e-05,-1.89905159216794e-05
-0.0014886976175724,0.00520775349186382,-2.92522114084468e-05,-3.20776025685703e-06
-0.0014814854551247,0.00521928103085047,-2.02563936042628e-05,8.79616841636496e-06
-0.0014678598325169,0.00522741110488243,-7.63405447943299e-06,1.66668570308741e-05
-0.00145437726106508,0.00523451597896313,5.5105694528121e-06,2.39047803259417e-05
-0.00144543656381587,0.00524375469945399,1.63399545159634e-05,3.28247198215132e-05
-0.00143809327114184,0.00525169403861129,2.42975451089529e-05,4.21647963032004e-05
-0.0014313102621621,0.00525991948008057,2.98167961252219e-05,4.96191318485154e-05
-0.00142954596457159,0.00526530774028943,3.23620093721529e-05,5.46822670000481e-05
-0.00143213280630903,0.00526720316810627,3.1166395065418e-05,5.80480407126523e-05
-0.00143578061078671,0.00526876480989246,2.72312857492465e-05,5.97488005941967e-05
-0.00143958338735005,0.00526902707034511,2.30001445123603e-05,5.94607860426045e-05
-0.00144349345228037,0.0052671554843876,1.99436645546668e-05,5.78744908380082e-05
-0.00144662865678243,0.00526365073106591,1.74645561441762e-05,5.60647802965662e-05
-0.00144948967990218,0.00526186259161607,1.42934714366497e-05,5.36738622268083e-05
-0.00145384081923013,0.00525779755460009,1.01724079705292e-05,4.93688540639783e-05
-0.00145818003762841,0.00525049002471507,5.99295131932119e-06,4.34078739484137e-05
-0.0014617920793171,0.0052447560575459,2.83260222848271e-06,3.82218228914981e-05
-0.00146387824200858,0.00524278910415108,1.02332787033174e-06,3.56868384461211e-05
-0.00146464118150718,0.00524122746236488,-9.47292386857361e-08,3.49393234619291e-05
-0.00146603593027806,0.00523917706246239,-1.48227775802385e-06,3.35599948961331e-05
-0.00146902808362413,0.00523505242079809,-3.41440573797016e-06,2.96524913539315e-05
-0.00147051819983233,0.00522726805372644,-5.5545431228775e-06,2.19227722462944e-05
-0.00147305735785111,0.00521425039853158,-8.03457139368996e-06,9.44273995597211e-06
-0.00147665747861013,0.00519721539003941,-1.15530404320657e-05,-6.71175084503055e-06
-0.00148143777140604,0.00518215925587173,-1.58337990755373e-05,-2.25795402188348e-05
-0.00148426303173679,0.00516901047045055,-1.89133678922771e-05,-3.43369701984571e-05
-0.00148404845500281,0.0051615718103392,-1.90402695632904e-05,-4.20168495789538e-05
-0.00148220071090464,0.00515506298274177,-1.67887333412306e-05,-4.84037269075272e-05
-0.0014796496319562,0.00514814884353571,-1.42493666662158e-05,-5.46717513563974e-05
-0.00147808799017,0.00514359504840344,-1.25703606955708e-05,-5.94948315746787e-05
-0.00147627600886083,0.0051399353229961,-1.1500383749847e-05,-6.24734288347475e-05
-0.00147637137629815,0.00513746769055531,-1.09899209728427e-05,-6.55475039928944e-05
-0.00147691973906277,0.00513229400708044,-1.15730650778604e-05,-6.98777041299408e-05
-0.00147771844135037,0.00512911111885972,-1.27662549324499e-05,-7.36791153023009e-05
-0.00147742041810873,0.00512759716079218,-1.24698243443461e-05,-7.46938473139448e-05
-0.00147362956247506,0.00512961179790567,-8.85145357395781e-06,-7.28759259358268e-05
-0.00146737107440061,0.00513426096047526,-2.16252324654812e-06,-6.88575715092467e-05
-0.00145857342830738,0.00514099628573634,5.8976194461435e-06,-6.14976144606889e-05
-0.00145058640543141,0.00515303642469862,1.39778588274534e-05,-4.93642287302029e-05
-0.00144300469416408,0.00517016680062811,2.15657950360589e-05,-3.39549234881628e-05
-0.00143618592239534,0.00518424541856321,2.81476016673451e-05,-1.93446116075977e-05
-0.00143177517841906,0.00519380600415504,3.2711004968954e-05,-8.55458553431921e-06
-0.00142946251806393,0.0052037719013555,3.42566892247307e-05,-1.26433654870224e-06
-0.00143148907610709,0.00521065027777256,3.26001100086971e-05,5.31170054642107e-06
-0.00143541106196708,0.00521775515185327,2.86447651586481e-05,1.39820929969703e-05
-0.00143978604315436,0.00522966416058923,2.38388719481525e-05,2.49521870790967e-05
-0.00144394644760766,0.00524247915997977,1.92088991468851e-05,3.46536436060382e-05
-0.0014488578706299,0.00524451763895259,1.49504738695465e-05,3.85296122761965e-05
-0.00145211228442861,0.00524156124839552,1.09931813029282e-05,3.62570161091886e-05
-0.00145562895867997,0.0052413228298022,7.49957939831169e-06,3.26082572354434e-05
-0.00145821580041741,0.00524090559726391,4.35868733576197e-06,3.14526580460153e-05
-0.00146225699557406,0.00523780615555085,7.31049323557533e-07,3.08883147240576e-05
-0.00146683463256565,0.0052364352486393,-3.94068887094476e-06,2.70536093627531e-05
-0.00147031554402802,0.00523264439300563,-8.6623755955152e-06,2.10302121953023e-05
-0.00147445210662199,0.00522813828159203,-1.17671997181298e-05,1.79351557114443e-05
-0.00147534617634691,0.00523041517915816,-1.32334267152745e-05,1.94551499581115e-05
-0.00147664555768046,0.00523351462087122,-1.50009671835055e-05,2.15201030438393e-05
-0.00148024567843948,0.00523432524408849,-1.84956249950635e-05,2.05359733045715e-05
-0.00148427495266646,0.0052318218488587,-2.2798631672518e-05,1.82386445011771e-05
-0.00148736247344985,0.00523076088611846,-2.58992897143627e-05,1.80996404100675e-05
-0.0014879346780738,0.00523536236496939,-2.6916603745743e-05,1.94827655004426e-05
-0.00148732671066086,0.00523415835107317,-2.63467528205845e-05,1.81499251843628e-05
-0.00148553857121101,0.00522702963513313,-2.48872190619938e-05,1.1546239643568e-05
-0.00148378619455017,0.00521773130999394,-2.2946575139446e-05,1.55528229152073e-06
-0.00148104438072708,0.00521065027777256,-2.08052477791245e-05,-7.56638980639145e-06
-0.00147845753898964,0.00520498783618139,-1.83643361667846e-05,-1.27931751865281e-05
-0.00147515544147226,0.00520385534786316,-1.5077017424238e-05,-1.43554561270369e-05
-0.00147086390679263,0.0052037361385665,-1.08314300261124e-05,-1.4939591064288e-05
-0.00146572598610675,0.00520316393394255,-6.3964756085424e-06,-1.64242721861833e-05
-0.0014617563165281,0.0052026274921076,-2.22865854385672e-06,-1.7425367971737e-05
-0.00145672568420921,0.00520514280826704,2.43993275283763e-06,-1.5305281593958e-05
-0.00145120629377403,0.0052090767150567,8.17498614327654e-06,-1.04619755314623e-05
-0.00144482859640292,0.00521507294267851,1.36879756273033e-05,-6.3593518738837e-06
-0.00144128808029223,0.00521749289140063,1.72765466749679e-05,-4.57646893265781e-06
-0.00143922575946008,0.00521842272391455,1.96814452132917e-05,-2.24320833465861e-06
-0.00143460043874982,0.00522493155151198,2.35185873607819e-05,4.12240014583983e-06
-0.00142856844833901,0.0052375796578872,2.93275180195072e-05,1.43943282349049e-05
-0.00142415770436273,0.00524821312714893,3.39533449964481e-05,2.63347267217266e-05
-0.00142376431368377,0.00526042015912653,3.39650234063269e-05,3.91357003884279e-05
-0.00142831810881603,0.00527442725148363,2.94614382556816e-05,5.25566796369558e-05
-0.00143353947600958,0.0052866104416019,2.33231213412763e-05,6.36202056265944e-05
-0.00143989333152135,0.00528943570193265,1.76939972515436e-05,6.73402765028131e-05
-0.00144459017780961,0.00528219969762562,1.25809270194554e-05,6.1174927249544e-05
-0.00144928702409786,0.00526922972614942,7.31107904112253e-06,4.70118414306553e-05
-0.00145493754475937,0.00525118143863567,1.88348093714903e-06,2.87737344706989e-05
-0.00145964631197729,0.00523104698843044,-3.10871696868676e-06,9.70016150746131e-06
-0.00146346100947028,0.00521301062184635,-6.9121525606535e-06,-8.14168499081204e-06
-0.00146539220007612,0.00519738228305473,-9.05747106746499e-06,-2.35754943660045e-05
-0.00146590480005174,0.00518578321849008,-1.018221491981e-05,-3.62595454795676e-05
-0.00146840819528152,0.00517437488880008,-1.21201752249023e-05,-4.61696836366782e-05
-0.00147231826021184,0.00516638786592411,-1.61287001596602e-05,-5.3117882707937e-05
-0.00147622832514216,0.00516388447069433,-2.10940737286069e-05,-5.72415535589676e-05
-0.00148036488773613,0.00516128570802723,-2.44773391542745e-05,-5.91899799561304e-05
-0.00148081788306343,0.00515971214531136,-2.50814858368778e-05,-5.89747133761045e-05
-0.00147906550640258,0.00516407520556898,-2.4029247031797e-05,-5.57746672051122e-05
-0.00147883900873894,0.00516905815416921,-2.30473162105127e-05,-5.01520555285788e-05
-0.00147743233903839,0.0051741245492771,-2.27132234814229e-05,-4.4953106051199e-05
-0.00147762307391304,0.00517618687010925,-2.23577530073661e-05,-4.18180927130688e-05
-0.00147622832514216,0.00518102676755349,-2.06514457460874e-05,-3.79449594587167e-05
-0.00147081622307397,0.00518844158580551,-1.62513034359553e-05,-2.90907771878458e-05
-0.00146354445597794,0.00520287783163058,-9.03957279901988e-06,-1.51972644991482e-05
-0.00145671376327954,0.00521783859836093,-9.25057456129025e-07,-2.33589368079754e-08
-0.00144876250319257,0.00523142845817974,5.74502572318841e-06,1.44860368423044e-05
-0.00144376763366268,0.00524693758767471,1.07506857543765e-05,2.96634651771397e-05
-0.00143905886644476,0.00526244671716968,1.56099473524136e-05,4.51114272910181e-05
-0.00143488654106179,0.00527309210736108,2.04176067363941e-05,5.6187309631349e-05
-0.00143158444354441,0.00527550013515354,2.30691515594853e-05,5.90437270676145e-05
-0.00143119105286545,0.0052724960608778,2.27107123778578e-05,5.56516367147873e-05
-0.00143309840161195,0.00526796610760487,2.19906247753999e-05,5.10866779956487e-05
-0.00143163212726308,0.00526409180546354,2.38183089751779e-05,4.75182492184178e-05
-0.00142670878331118,0.00525993140101024,2.70520644568321e-05,4.35049160808352e-05
-0.00142658957401452,0.00525448353615305,2.77843879027857e-05,3.78457595330294e-05
-0.00143119105286545,0.00524811775971161,2.45422683288222e-05,3.10608985777655e-05
-0.00143458851782015,0.0052402499461323,1.99330491018618e-05,2.34587464911658e-05
-0.00143694886189394,0.00523103506750077,1.69167611261223e-05,1.45314916864399e-05
-0.00143988141059169,0.0052219393981659,1.54617771791723e-05,4.58428397845088e-06
-0.00144186028491618,0.00521230728699608,1.34901481713704e-05,-5.18054509730186e-06
-0.00144455441502061,0.00520268709675593,9.44334089728776e-06,-1.45319417407414e-05
-0.00145176657746831,0.0051935437437024,3.14006922677084e-06,-2.40970774994157e-05
-0.00146014699102324,0.00518513948828813,-4.44110248517219e-06,-3.27908050651471e-05
-0.0014656067768101,0.0051809194791865,-1.13104730834465e-05,-3.74841452646751e-05
-0.00147079238121464,0.00518194467913775,-1.56215475463413e-05,-3.6709339397346e-05
-0.00147299775320278,0.00518463880924218,-1.76168117009537e-05,-3.34389471806416e-05
-0.00147426137174734,0.00518716604633129,-1.93678079434085e-05,-3.25028061462529e-05
-0.00147721776230441,0.00518415005112589,-2.17823108759558e-05,-3.55371110095287e-05
-0.00147837409248198,0.00517962009785295,-2.32230466092787e-05,-3.96255584261658e-05
-0.00147800454366234,0.00517932207461131,-2.23197341283203e-05,-4.0814818470527e-05
-0.00147604951119718,0.00518296987908899,-2.07911292877061e-05,-3.79501073513532e-05
-0.00147712239486709,0.0051877501718849,-2.15792087253426e-05,-3.28854908824068e-05
-0.00148092517143042,0.00519285232978179,-2.48998060898459e-05,-2.79799548109163e-05
-0.00148358353874585,0.00519753725514038,-2.81143337795163e-05,-2.43746601939705e-05
-0.00148512133867272,0.00519918234343423,-2.91746351753701e-05,-2.24384517681528e-05
-0.00148413190151047,0.00519975454805818,-2.80875563167765e-05,-2.24569104983343e-05
-0.00148108014351607,0.00519861013881028,-2.49072378122003e-05,-2.37025268309678e-05
-0.00147483357637129,0.00519939692016822,-1.86910028250299e-05,-2.33215366589793e-05
-0.00146590480005174,0.00520528585942303,-9.52002402515344e-06,-1.78685968557944e-05
-0.0014560700330776,0.00521603853798142,3.09846446512685e-07,-6.81533935909767e-06
-0.00144821414042796,0.00522986681639354,8.67776354773777e-06,6.32943025533161e-06
-0.00144063242916062,0.00524092943912324,1.60029620725029e-05,1.72558342463329e-05
-0.00143318184811961,0.00524815352250061,2.35613626333527e-05,2.45825888229047e-05
-0.00142692336004516,0.00525308878738217,3.02885201670126e-05,2.96728598126674e-05
-0.00142418154622206,0.00525851281038003,3.3272799023927e-05,3.38677710433336e-05
-0.00142567166243027,0.00526095660096148,3.14393617533873e-05,3.75183815042151e-05
-0.00143049963894484,0.00526444943335351,2.69974977482395e-05,4.11118906933847e-05
-0.00143529185267042,0.0052698257726327,2.26844569158054e-05,4.50403540016762e-05
-0.00143910655016342,0.0052710417074586,1.8937592303168e-05,4.76783771032135e-05
-0.0014431715871794,0.00526865752152547,1.46593051734665e-05,4.56409671922956e-05
-0.00144863137296625,0.00526133807071078,9.71313724760512e-06,3.73635483248381e-05
-0.00145338782390283,0.00524867804340589,5.31101437894683e-06,2.54974251666206e-05
-0.00145670184234988,0.00523717434627857,2.2096965886424e-06,1.46071658075716e-05
-0.00145881184690069,0.0052296403187299,-1.61804558797931e-07,7.14069143181423e-06
-0.00146127947934148,0.00522514612824596,-2.32040289621184e-06,2.60241849565926e-06
-0.00146355637690761,0.0052215579284166,-3.33518936432225e-06,-1.72476506630112e-07
-0.00146098145609984,0.00521943600293612,-1.77497708288211e-06,-1.52655457824837e-06
-0.0014576316748638,0.00521961481688111,1.96170799430984e-06,-1.72029571179017e-06
-0.00145558127496131,0.00521841080298488,5.05516932058036e-06,-1.75842574848532e-06
-0.00145577200983596,0.00521702797514367,4.62083344766531e-06,-2.71385737039018e-06
-0.00146000393986725,0.0052147272357182,5.25048668924194e-07,-4.54234835396019e-06
-0.00146545180472444,0.00521273644046405,-4.64246677010496e-06,-5.94861300816307e-06
-0.00146995791613805,0.00521219999862909,-8.43979271117786e-06,-5.60768337143386e-06
-0.00147221097184485,0.00521354706368131,-1.09005326343613e-05,-3.75735330078735e-06
-0.00147573956702587,0.00521439344968757,-1.37587734694263e-05,-2.36105964141345e-06
-0.0014796138691672,0.00521296293812769,-1.78825717547205e-05,-2.82447633405084e-06
-0.00148448952940044,0.0052117470033018,-2.20761035229367e-05,-3.37257629995228e-06
-0.00148729094787186,0.00521450073805456,-2.42373104339791e-05,4.60592536809674e-08
-0.00148555049214068,0.00522325070042912,-2.30546023928741e-05,9.28952278330242e-06
-0.00148160466442136,0.00523419411386216,-1.8479780104249e-05,2.13236575940952e-05
-0.00147509583682393,0.00524275334136208,-1.11890173745832e-05,3.10419646868296e-05
-0.00146580943261441,0.00524843962481258,-2.17233261180659e-06,3.59856103112151e-05
-0.0014568329725762,0.00524753363415799,7.18518490858815e-06,3.71026676961095e-05
-0.00144931086595719,0.00524545939239617,1.51058510145521e-05,3.5878880037327e-05
-0.0014446259405986,0.00524280102508074,2.00813882447348e-05,3.27296188626932e-05
-0.00144311198253107,0.00523673327188094,2.19316447782256e-05,2.79201191650739e-05
-0.0014431715871794,0.0052296403187299,2.20900179654654e-05,2.19858411778572e-05
-0.00144301661509374,0.00522253544464919,2.2233676672534e-05,1.49112735274885e-05
-0.00144385108017034,0.00521382124506362,2.23056883225735e-05,6.47408149081925e-06
-0.00144560345683118,0.00520371229670717,2.04046857475021e-05,-2.47601782976943e-06
-0.0014511109263367,0.0051949980971216,1.52652856934514e-05,-1.07488416832063e-05
-0.00145778664694945,0.00518696339052697,8.55873405968833e-06,-1.87657113686626e-05
-0.00146334180017363,0.0051774862514428,3.86667757949582e-06,-2.76052676851682e-05
-0.00146396168851624,0.00516898662859122,3.16475615690261e-06,-3.59146990612313e-05
-0.00146224507464439,0.00516333610792971,4.89643205840672e-06,-4.05399694218352e-05
-0.0014617920793171,0.00516355068466369,5.78132820702365e-06,-4.121723360771e-05
-0.00146399745130524,0.00516246588006412,4.05306703489371e-06,-4.17351715787477e-05
-0.00146735915347094,0.00515865118257112,5.87928482187213e-07,-4.4576469729704e-05
-0.00147080430214431,0.00515719682915192,-2.76011340505901e-06,-4.70740562972008e-05
-0.0014738918229277,0.00515847236862614,-5.40512155927538e-06,-4.54995951028651e-05
-0.0014772892878824,0.00516318113584406,-8.57045826850972e-06,-4.07210515232923e-05
-0.00148236760391996,0.00516723425193037,-1.37826165336135e-05,-3.64701983514867e-05
-0.0014898777896093,0.00517082245175972,-2.08936965221022e-05,-3.34840452339017e-05
-0.00149647006371439,0.00517604381895326,-2.7671105221711e-05,-2.91553219646575e-05
-0.00150108346349498,0.00518153936752912,-3.14748620189217e-05,-2.2556397982689e-05
-0.0015001059472624,0.00518887073927347,-3.13431499608965e-05,-1.62325000366432e-05
-0.00149806746828958,0.00519320995767176,-2.84676243245964e-05,-1.28280449456729e-05
-0.00149451503124923,0.0051935079809134,-2.49611693156279e-05,-1.30974242152538e-05
-0.00149137982674717,0.00518839390208685,-2.23314177366543e-05,-1.72858989460636e-05
-0.00149058112445957,0.00518302948373732,-2.05815150294553e-05,-2.46003423832784e-05
-0.00148745784088718,0.00517833263744906,-1.811724460389e-05,-3.03475670149039e-05
-0.00148248681321662,0.00518063337687453,-1.28581498183928e-05,-2.78037486794567e-05
-0.00147378453456071,0.00519335300882775,-4.36965226133015e-06,-1.56478273324547e-05
-0.00146467694429618,0.00520999462664095,5.01103902855863e-06,-7.2075053081811e-07
-0.00145791777717577,0.00522125990517496,1.1935264962974e-05,9.56157108322319e-06
-0.00145350703319949,0.00522754223510875,1.51791417233004e-05,1.55485210440864e-05
-0.00145328053553584,0.00523556502077371,1.65462777008929e-05,2.31711110058393e-05
-0.00145095595425105,0.0052497509270758,1.86575640735185e-05,3.50381406501202e-05
-0.00144624718703313,0.00526289971249698,2.24716950719551e-05,4.71446417585466e-05
-0.00144207486165016,0.00526945622381307,2.68877160614937e-05,5.38739070821127e-05
-0.00143953570363138,0.00526971848426571,2.98334293980606e-05,5.29658473448339e-05
-0.00143914231295242,0.00526480706124348,2.95939137999065e-05,4.53389269841458e-05
-0.00144203909886116,0.00525299341994485,2.61400808100689e-05,3.32982645418797e-05
-0.00144702204746139,0.0052402499461323,2.16282802149935e-05,2.04501717108954e-05
-0.00144972809849549,0.00523326428134824,1.87008807611999e-05,1.1176005159634e-05
-0.00144989499151081,0.00523160727212472,1.77726454789859e-05,7.98768684976025e-06
-0.00145102747982904,0.00523390801155019,1.67768978818854e-05,9.80241771779073e-06
-0.00145368584714448,0.00523873598806476,1.39298660031637e-05,1.37283487908054e-05
-0.00145761975393413,0.00524421961571095,9.60723416101588e-06,1.78366764608904e-05
-0.00146182784210609,0.00524976284800546,4.90054076368507e-06,2.13404171570965e-05
-0.00146728762789295,0.00525205166650126,-1.98370216485549e-07,2.31317888942699e-05
-0.00147184142302522,0.005251241043284,-5.78011389530204e-06,2.21226507689194e-05
-0.00147624024607183,0.00525106222933902,-1.027176209115e-05,1.93798602526446e-05
-0.00147775420413936,0.00525068075958972,-1.16649422761512e-05,1.82561945212151e-05
-0.0014757991716742,0.00525419743384107,-1.03963970529868e-05,2.08099002671832e-05
-0.00147393950664637,0.00525834591736471,-9.43841793300529e-06,2.44136750259835e-05
-0.00147650250652447,0.00525876314990301,-1.11574503602345e-05,2.355733433297e-05
-0.00147931584592556,0.00525304110366351,-1.50340504617735e-05,1.57063628721712e-05
-0.00148249873414628,0.0052413228298022,-1.86964007989391e-05,4.20041721034178e-06
-0.00148406037593248,0.00523177416514004,-2.04084968405269e-05,-5.70492634581934e-06
-0.00148388156198749,0.00522698195141446,-2.03553796589663e-05,-1.25446166850074e-05
-0.00148296365040324,0.00522247584000086,-2.00858159848391e-05,-1.86545994786654e-05
-0.00148332127829321,0.00521429808225024,-2.08086380419437e-05,-2.53205076760046e-05
-0.00148388156198749,0.00521088869636587,-2.19292257778013e-05,-3.07649370844734e-05
-0.00148400077128415,0.00520916016156436,-2.15882946386539e-05,-3.37155542349022e-05
-0.00148025759936914,0.00520665676633458,-1.90514897815099e-05,-3.63731543648893e-05
-0.00147666939953979,0.005201864552609,-1.58305521331674e-05,-4.17355747651782e-05
-0.00147490510194928,0.005194235157623,-1.35546957470535e-05,-4.91949068372522e-05
-0.00147166260908023,0.00519107611126161,-1.1499864622073e-05,-5.47454893808806e-05
-0.00146777638600924,0.00519028932990368,-7.62613188558381e-06,-5.50553968078249e-05
-0.00146158942351278,0.00519475967852829,-1.66736878499133e-06,-4.99370868837509e-05
-0.00145504483312636,0.0052053335431417,4.35665780256231e-06,-4.14783255416348e-05
-0.0014507652193764,0.00521408350551626,8.62588313491792e-06,-3.2355481042515e-05
-0.00144797572183464,0.00522214205397022,1.10082766635383e-05,-2.46194501406767e-05
-0.00144627102889246,0.00522837670018534,1.20179825300011e-05,-1.84907933657391e-05
-0.00144726046605471,0.00523468287197845,1.19081389555263e-05,-1.22520298604859e-05
-0.00144658097306377,0.00524356396457934,1.12076897827391e-05,-4.35801059561906e-06
-0.00144718894047671,0.00525212319207926,1.07734086934858e-05,4.71333962174216e-06
-0.00144732007070303,0.00526082547073516,1.08591210405471e-05,1.38586740124577e-05
-0.00144648560562644,0.00527167351673088,1.13193003021807e-05,2.38010394721905e-05
-0.0014442444708493,0.00528385670684914,1.28197713417647e-05,3.6074893464117e-05
-0.0014416099453932,0.00529675515274734,1.61434983223315e-05,4.95793894101708e-05
-0.00143780716882987,0.0053074482266574,1.99580251086233e-05,6.03252555398624e-05
-0.00143541106196708,0.0053128245659366,2.13524179069505e-05,6.54341043687161e-05
-0.00143778332697054,0.00531294377523325,1.95001863756224e-05,6.58070308293734e-05
-0.00144110926634725,0.00531038077535515,1.66965099356501e-05,6.38917328641848e-05
-0.00144261130348511,0.00530658991972148,1.43915155458562e-05,6.01773394768284e-05
-0.00144659289399343,0.00529937775727378,1.03608299416011e-05,5.32080075907622e-05
-0.00145611771679626,0.00528852971127806,2.02013511156204e-06,4.23374999235711e-05
-0.00146610745585605,0.00527417691196066,-9.03526778563866e-06,2.92243507785438e-05
-0.00147577532981487,0.00526169569860075,-1.83442486971427e-05,1.66504284558927e-05
-0.00148184308301467,0.00525130064793233,-2.33836641741968e-05,6.42660599453485e-06
-0.00148187884580367,0.00524232418789412,-2.44730152983977e-05,-1.6408244331321e-06
-0.00147982844590118,0.00523458750454113,-2.1878349052383e-05,-8.98388657861226e-06
-0.00147463092056697,0.00522657663980583,-1.54612316494232e-05,-1.64158245901712e-05
-0.00146563061866943,0.00521941216107679,-7.35530982142956e-06,-2.32535245412325e-05
-0.00145974167941461,0.00521351130089231,-1.47626394830678e-06,-2.86409943625516e-05
-0.00145895489805668,0.00520790846394947,1.0196239225715e-06,-3.30602645158293e-05
-0.00145659455398289,0.00520355732462152,3.12240247261972e-06,-3.73525720166973e-05
-0.00145176657746831,0.00519944460388688,7.22449515463319e-06,-4.07353556023075e-05
-0.00144895323806722,0.00519797832953801,1.14537624066858e-05,-4.16496125184406e-05
-0.00144835719158394,0.00519779951559302,1.29071993606862e-05,-4.06382988453406e-05
-0.00144804724741264,0.00519810945976433,1.24501006939647e-05,-4.00240660653152e-05
-0.00144765385673367,0.005198049855116,1.33261711334773e-05,-3.96874417447794e-05
-0.0014461875823848,0.0052011373758994,1.60418109744631e-05,-3.5516161994918e-05
-0.0014446259405986,0.00521127016611517,1.78176250042907e-05,-2.42952943131752e-05
-0.00144497164755891,0.00522662432352449,1.7146207822397e-05,-8.79151008743741e-06
-0.0014473319916327,0.00523937971826671,1.58989529323645e-05,4.54101363982274e-06
-0.00144776114510066,0.0052459004667938,1.58766038540984e-05,1.23694336048885e-05
-0.00144829758693561,0.00524913103873319,1.56727463291537e-05,1.66023833419789e-05
-0.00145180234025731,0.00525261195019555,1.28130955976472e-05,1.99560841408875e-05
-0.00145678528885754,0.00525389941059943,7.68915168761863e-06,2.22667232189434e-05
-0.0014621735490664,0.0052523496897429,3.37815074629962e-06,2.21855881656707e-05
-0.00146435507919521,0.00525002510845811,1.85779448339896e-06,2.01769972438009e-05
-0.0014640808978129,0.00524731905742401,1.93235217079959e-06,1.79563937438846e-05
-0.00146527299077946,0.00524435074593727,1.06331067225978e-06,1.61439001230773e-05
-0.00146958836731841,0.00524165661583284,-1.90529784002235e-06,1.41859858512636e-05
-0.00147407063687269,0.00523823530901881,-6.24222453206285e-06,1.19709937867201e-05
-0.00147811183202933,0.00523633988120197,-1.05973948380005e-05,1.00117539161612e-05
-0.00148248681321662,0.0052333834906449,-1.39859261080997e-05,8.28220289995514e-06
-0.00148518094332105,0.00523017676056485,-1.5959611755364e-05,6.0610274108521e-06
-0.00148611077583496,0.0052258256212369,-1.67782689458071e-05,2.73215196970222e-06
-0.00148693331998189,0.005220902277285,-1.76200181235801e-05,-2.20350160746382e-06
-0.0014898420268203,0.00521292717533869,-1.98626975839114e-05,-9.35199156383681e-06
-0.00149425277079658,0.00520194799911666,-2.34693939476848e-05,-1.81991843831387e-05
-0.001497125714846,0.00519471199480963,-2.63709436688145e-05,-2.59146867765911e-05
-0.00149693497997135,0.00519059927407499,-2.62481385447123e-05,-2.91872748942259e-05
-0.00149432429637458,0.00519107611126161,-2.3044699132242e-05,-2.77095915170494e-05
-0.00149137982674717,0.00519304306465644,-1.90404289489795e-05,-2.44145013309402e-05
-0.00148781546877715,0.00519526035757425,-1.62020224910494e-05,-2.18184418832849e-05
-0.00148607501304597,0.00519753725514038,-1.42144443611773e-05,-1.97179124524218e-05
-0.00148447760847077,0.005198049855116,-1.16233717588708e-05,-1.71058614433712e-05
-0.00148086556678209,0.00520027906896347,-8.10566883508692e-06,-1.42642077592439e-05
-0.00147746810182739,0.00520317585487222,-4.60565848852371e-06,-1.13981808549091e-05
-0.00147463092056697,0.00520635874309294,-1.66561756890358e-06,-7.13617690411892e-06
-0.00147209176254819,0.00521196158003578,1.12674281587689e-06,-8.81081097747842e-07
-0.00147023209752036,0.00521607430077042,3.94284652738534e-06,4.67821199237154e-06
-0.00146697768372164,0.00521822006811023,6.10193266955598e-06,6.67001955735119e-06
-0.001466751186058,0.00521866114250786,7.12262877781234e-06,7.34162118257975e-06
-0.00146652468839435,0.0052219393981659,7.55730630173651e-06,1.25374274606213e-05
-0.0014662981907307,0.00523239405348265,8.1674160045771e-06,2.36686038360275e-05
-0.00146485575824116,0.00524426729942961,8.81521800472424e-06,3.43610932299897e-05
-0.00146594056284073,0.00524485142498323,8.80797180747701e-06,3.73164336355739e-05
-0.00146628626980104,0.00523959429500069,8.04576973865789e-06,3.23566141213026e-05
-0.00146750220462693,0.00523242981627165,7.2666557787475e-06,2.53870428968123e-05
-0.00146741875811927,0.0052280429141547,7.20616096996958e-06,2.1312740605797e-05
-0.00146707305115897,0.00522624285377519,7.78577332369565e-06,2.07843708921898e-05
-0.00146667966048,0.00522757799789774,8.03803337452017e-06,2.24077970437253e-05
-0.00146863469294516,0.00522974760709689,6.77587639815931e-06,2.44212752490476e-05
-0.00147128113933093,0.00522836477925567,3.71470122329791e-06,2.42463677561675e-05
-0.00147495278566794,0.00522344143530377,1.75318352279222e-07,1.99113345849369e-05
-0.00147699126464076,0.0052174690495413,-1.68506227889057e-06,1.30501260549079e-05
-0.00147653826931347,0.0052105668312649,-7.11643808646455e-07,7.95437871461457e-06
-0.00147303351599178,0.0052091124778457,2.32588531866935e-06,6.43490199813968e-06
-0.00146993407427872,0.00520842106392509,5.78842836450833e-06,5.77109768939785e-06
-0.00146695384186231,0.00520588190590631,8.76790100216728e-06,2.97610763073969e-06
-0.00146487960010049,0.0051999214410735,1.13198230249521e-05,-1.18535335591777e-06
-0.00146279343740901,0.00519727499468773,1.35023652844177e-05,-4.29058191715797e-06
-0.00146110066539649,0.00519627363659582,1.48454964166477e-05,-6.38338946310883e-06
-0.00146131524213047,0.00519181520890088,1.48763379673376e-05,-9.37297919608465e-06
-0.00146358021876694,0.00518695146959731,1.37438757699877e-05,-1.33192245617785e-05
-0.0014647723117335,0.00518585474406807,1.19551910182503e-05,-1.6185496828703e-05
-0.00146683463256565,0.00518444807436753,9.49113828200517e-06,-1.74706284930343e-05
-0.00147171029279889,0.00518040687921088,5.55977687417537e-06,-1.96993678006126e-05
-0.0014785052227083,0.00517605573988293,-2.24169862694128e-07,-2.52330106007218e-05
-0.00148351201316786,0.00516902239138021,-6.33493032554107e-06,-3.2859398969483e-05
-0.00148674258510724,0.00516315729398473,-9.80942413568263e-06,-3.84635767453285e-05
-0.00148792275714414,0.0051623347498378,-9.06984252723648e-06,-3.8471232217993e-05
-0.0014849544456574,0.00516945154484818,-5.97247416739453e-06,-3.23332314860583e-05
-0.00148154505977303,0.00518012077689891,-4.05608122105831e-06,-2.25806333286918e-05
-0.00148314246434822,0.00518883497648448,-4.69540916501278e-06,-1.31068839064431e-05
-0.0014861346176943,0.00519515306920725,-5.9169663190588e-06,-6.74332174110407e-06
-0.00148450145033011,0.00519946844574621,-5.19705725013802e-06,-3.71029339080251e-06
-0.00148074635748543,0.00520123274333672,-2.37351714970335e-06,-2.45611878937358e-06
-0.00147979268311219,0.00520086319451709,7.39265489530894e-07,-2.01887671927699e-06
-0.00147798070180301,0.00520087511544675,2.67117301330389e-06,-2.89853043446253e-06
-0.00147643098094648,0.00519982607363618,3.37917471478829e-06,-5.33164741738784e-06
-0.00147706279021876,0.00519658358076713,3.58643854922461e-06,-7.75885264587762e-06
-0.00147706279021876,0.00519706041795375,3.91272938113844e-06,-8.24937689913488e-06
-0.00147700318557043,0.00519896776670025,4.48749572577556e-06,-7.19311201948387e-06
-0.00147666939953979,0.00519912273878591,4.88174629415016e-06,-7.14061075790194e-06
-0.00147669324139912,0.00519758493885904,4.51537946768464e-06,-9.28299766974309e-06
-0.00147892245524659,0.00519697697144609,3.30195837752711e-06,-1.09882843780584e-05
-0.00148100861793808,0.00519988567828451,1.56932023644587e-06,-7.99458548399803e-06
-0.0014830470969109,0.00520970852432898,-6.2335597836961e-07,9.81438615215905e-07
-0.00148563393864834,0.00522253544464919,-3.37062227245731e-06,1.25723695310497e-05
-0.00148926982219635,0.00523141653725007,-6.10223678168617e-06,2.16859312171854e-05
-0.00149146327325483,0.00523624451376465,-7.97331109429617e-06,2.53887399290933e-05
-0.00149275073365871,0.00523571999285936,-9.36538819180148e-06,2.40127118514441e-05
-0.00149427661265591,0.00523190529536636,-1.16583012599422e-05,1.97923368922219e-05
-0.00149948605891979,0.00522799523043604,-1.48264454262219e-05,1.52908319338441e-05
-0.0015004874170117,0.00522646935143884,-1.6692492733903e-05,1.22929558389509e-05
-0.00149931916590447,0.00522475273756699,-1.56682631784788e-05,1.09539147174565e-05
-0.00149692305904168,0.00522525341661295,-1.28742030165665e-05,1.00669186757429e-05
-0.00149468192426455,0.00522503883987897,-1.01400513853433e-05,8.75767949514205e-06
-0.0014917851383558,0.00522362024924876,-7.32398846786645e-06,7.47890956102835e-06
-0.00148745784088718,0.00522385866784207,-3.59670637823753e-06,6.75981489823767e-06
-0.00148481139450141,0.00522447855618468,-1.93575139604252e-07,6.0569489055156e-06
-0.00148390540384682,0.00522412092829471,7.67566943877874e-07,5.27865285688164e-06
-0.00148444184568178,0.00522546799334693,-1.98453233270504e-07,6.38667178723557e-06
-0.00148484715729041,0.00523088009541512,-3.49711228597696e-07,1.09549934765233e-05
-0.00148298749226257,0.00523819954622981,1.18079491820576e-06,1.62836428098804e-05
-0.00148227223648263,0.0052379253648475,2.40188494793538e-06,1.70122368140694e-05
-0.00148187884580367,0.00523387224876119,2.30335063339733e-06,1.18027249398858e-05
-0.00148088940864142,0.00522913963968394,2.98745535394982e-06,5.76296225698143e-06
-0.0014777422832097,0.00522818596531069,6.42848770929546e-06,4.2375187907051e-06
-0.00147296199041378,0.00523022444428351,1.11770256147352e-05,6.34557405990365e-06
-0.0014690400045538,0.00523201258373335,1.41936183082022e-05,7.22439666929856e-06
-0.00146920689756911,0.00523108275121944,1.46050994645538e-05,4.9645557125742e-06
-0.00146945723709209,0.005228424383904,1.38612612667781e-05,2.07439750198191e-06
-0.00146963605103708,0.0052273157374451,1.32109403328857e-05,9.23056114413514e-07
-0.00147026786030935,0.00522863896063798,1.28115088505587e-05,1.35987902019018e-06
-0.00146985062777106,0.00523179800699937,1.26462741442913e-05,3.03582935234578e-06
-0.00146945723709209,0.00523484976499377,1.26087566695637e-05,6.39843270388079e-06
-0.00147027978123902,0.0052383068345968,1.19937290540898e-05,9.97520905570984e-06
-0.00147117385096394,0.00524001152753899,1.02718578521569e-05,9.7936819502164e-06
-0.00147335538109275,0.00523446829524447,8.05344282649212e-06,3.93172866784818e-06
-0.00147478589265262,0.00522586138402589,6.09378440393708e-06,-4.18238428762872e-06
-0.00147672900418812,0.0052215936912056,3.82477131306185e-06,-9.32492766624452e-06
-0.00148024567843948,0.00522176058422092,2.27447257577703e-07,-1.02020414463403e-05
-0.00148375043176117,0.00522245199814153,-4.26350541621658e-06,-9.66487825909817e-06
-0.00148783931063648,0.00522131950982329,-8.28667545472917e-06,-1.03249573292523e-05
-0.00149083146398255,0.00522069962148068,-1.17994934778993e-05,-1.2299563974208e-05
-0.00149471768705354,0.00521824390996956,-1.60907034841902e-05,-1.48417897747384e-05
-0.00149925956125614,0.00521577627752878,-2.12933188601145e-05,-1.78236822594286e-05
-0.00150339612385011,0.00521162779400514,-2.55102120485963e-05,-2.12698588457651e-05
-0.00150434979822336,0.00520917208249402,-2.71717853807526e-05,-2.51743223893121e-05
-0.0015038848819664,0.00520429642226079,-2.70558806762062e-05,-3.01391757542967e-05
-0.00150358685872476,0.00519700081330543,-2.69680788088312e-05,-3.65768507552106e-05
-0.00150259742156252,0.00519231588794684,-2.71224643627949e-05,-4.2740656079398e-05
-0.00150148877510362,0.00518956215319408,-2.5845216934996e-05,-4.51207765906137e-05
-0.00149722108228332,0.0051923635716655,-2.16856601791316e-05,-4.18378877656935e-05
-0.00148906716639204,0.00520097048288408,-1.50688464425527e-05,-3.46643186029389e-05
-0.00148167618999935,0.00520794422673847,-7.72836960124863e-06,-2.67311388758684e-05
-0.00147538193913591,0.00521538288684981,-9.26317721762179e-07,-1.90876906673786e-05
-0.00146772870229058,0.00522500307708997,5.41352352358596e-06,-1.07283632867028e-05
-0.00146044501426488,0.00523321659762958,1.17668036198366e-05,-1.51020696104747e-06
-0.00145515212149335,0.00524122746236488,1.75926512370549e-05,6.55020040856293e-06
-0.00145115861005536,0.0052463534621211,2.15322195280931e-05,1.14474789075948e-05
-0.00144795187997531,0.00524877341084322,2.319480669676e-05,1.3738488242665e-05
-0.00144686707537574,0.00525026352705142,2.39570637778356e-05,1.60019455573815e-05
-0.00144627102889246,0.00525454314080138,2.52496194231855e-05,1.99944834691332e-05
-0.00144444712665362,0.00525933535452696,2.65222910355952e-05,2.52654288062106e-05
-0.00144374379180335,0.00526503355890712,2.5857256111401e-05,3.07341870739393e-05
-0.00144706973118006,0.00527000458657769,2.248572024572e-05,3.64165821312141e-05
-0.00145293482857554,0.00527597697234016,1.78003295134018e-05,4.24187594225462e-05
-0.00145546206566465,0.00527994664191882,1.37822199070214e-05,4.69576594154934e-05
-0.00145696410280252,0.00528067381862842,1.1227883121236e-05,4.74096949338972e-05
-0.00145987280964093,0.00527647765138612,9.73679543623962e-06,4.38759869750502e-05
-0.00146032580496823,0.00527160199115288,8.65658070302679e-06,3.99398610531464e-05
-0.00146071919564719,0.00527079136793562,7.52280567387927e-06,3.85288263421537e-05
-0.0014621377862774,0.00527006419122602,5.98542520506712e-06,3.81793314242851e-05
-0.00146487960010049,0.00526521237285211,3.79164111260734e-06,3.50062516783257e-05
-0.00146723994417429,0.00525884659641067,7.68359278115614e-07,2.76196963836845e-05
-0.00147182950209555,0.0052485349922499,-3.30067602959553e-06,1.83442066720261e-05
-0.00147589453911153,0.00524008305311698,-8.56386627165598e-06,1.00651758152711e-05
-0.00148303517598123,0.00523288281159894,-1.47380053702079e-05,3.90126963246033e-06
-0.00148968705473465,0.00522917540247294,-2.10485491085498e-05,-6.0068292572689e-08
-0.00149427661265591,0.00522681505839914,-2.66712662615483e-05,-2.03368225561769e-06
-0.00149906882638149,0.00522456200269234,-3.11578060632677e-05,-3.32986381985413e-06
-0.00150320538897546,0.00522152216562761,-3.44120397252537e-05,-5.96007565449459e-06
-0.00150481471448032,0.00521754057511929,-3.63444763515125e-05,-1.02355453218165e-05
-0.001504683584254,0.00521297485905736,-3.65625581321402e-05,-1.41211304740643e-05
-0.00150332459827212,0.00520973236618831,-3.43959240769187e-05,-1.60922761072352e-05
-0.00149856814733554,0.00520937473829834,-2.93036080798651e-05,-1.72961121468799e-05
-0.00149010428727295,0.00520650179424893,-2.12320528897041e-05,-1.95823065961261e-05
-0.00148011454821316,0.00520234138979562,-1.05385825762295e-05,-2.2721353317524e-05
-0.00146801480460255,0.00520004065037016,2.04666132077203e-06,-2.53032977114584e-05
-0.0014548898610407,0.00519751341328105,1.49237702530704e-05,-2.73128322264697e-05
-0.00144476899175459,0.00519568951104221,2.56081032171356e-05,-2.95390316266545e-05
-0.00143899926179643,0.00519307882744544,3.24009441451463e-05,-3.07725091152051e-05
-0.00143485077827279,0.00519605905986184,3.61399471499089e-05,-2.80723268020151e-05
-0.00143232354118368,0.00520412952924547,3.89850928582818e-05,-2.06157730029181e-05
-0.00143133410402144,0.00521235497071475,4.10661866568672e-05,-1.16208356637187e-05
-0.00143340834578325,0.00521740944489297,3.98494622824105e-05,-5.37754154521895e-06
-0.00143842705717248,0.0052215579284166,3.38153527024891e-05,-3.30039709051271e-06
-0.00144804724741264,0.00522038967730937,2.53494456666588e-05,-3.68194634184626e-06
-0.00145672568420921,0.00521813662160257,1.84286755696461e-05,-4.42673128165649e-06
-0.00145983704685194,0.00521971018431843,1.43799177097064e-05,-4.9580278883242e-06
-0.00146330603738463,0.00521841080298488,1.15759893525756e-05,-5.80878276315018e-06
-0.00146733531161161,0.00521624119378574,8.50691756739089e-06,-7.36832663440624e-06
-0.00147179373930655,0.00521471531478854,5.11315562721303e-06,-9.36552315939401e-06
-0.00147537001820624,0.00521370203576696,1.47489643165597e-06,-1.12922962341823e-05
-0.00147951850172988,0.0052117112405128,-2.51622475424806e-06,-1.29673512967094e-05
-0.00148417958522913,0.00521005423128928,-5.90991735890587e-06,-1.43060927702931e-05
-0.00148688563626323,0.00521125824518551,-7.26847288397208e-06,-1.45176056024121e-05
-0.00148589619910098,0.00521341593345499,-7.24754614942393e-06,-1.23562602416906e-05
-0.00148851880362742,0.00521754057511929,-8.78294220366512e-06,-7.95368017748303e-06
-0.00149481305449087,0.00522286923067982,-1.35889742523781e-05,-3.73370503954998e-06
-0.00150080928211267,0.00522486002593398,-1.98063033715642e-05,-2.16878407839539e-06
-0.00150606641209521,0.00522402556085739,-2.42403944335859e-05,-2.86302021059588e-06
-0.00150810489106803,0.00522456200269234,-2.58440063089702e-05,-3.40142403224758e-06
-0.00150878438405898,0.00522511036545696,-2.58287563781537e-05,-3.0235899890692e-06
-0.00150909432823028,0.00522551567706559,-2.52084248145755e-05,-3.26525829842679e-06
-0.00150783070968573,0.00522481234221532,-2.35586619003068e-05,-4.17438687130039e-06
-0.00150401601219273,0.00522780449556139,-1.99319045797501e-05,-2.43770075930754e-06
-0.00149961718914611,0.00523422987665116,-1.41136350232275e-05,4.36421390406185e-06
-0.00149338254293099,0.00524398119711764,-7.09699739179706e-06,1.31297680107382e-05
-0.0014867902688259,0.00524959595499015,-7.01827921897652e-07,1.79029472002983e-05
-0.00148252257600561,0.00524877341084322,3.71606336791119e-06,1.7036483463151e-05
-0.00148116359002373,0.00524735482021301,6.51168952856213e-06,1.49470285850065e-05
-0.00147928008313656,0.00524890454106954,9.10172536067135e-06,1.61275371542334e-05
-0.00147573956702587,0.00525393517338843,1.17708430611241e-05,1.99112371887426e-05
-0.00147517928333159,0.00525634320118089,1.3018141448788e-05,2.24536392161865e-05
-0.0014784336971303,0.00525550873610429,1.16581175081377e-05,2.17873155596579e-05
-0.00148025759936914,0.00525475771753536,8.64819290055214e-06,1.90172179057136e-05
-0.00148367890618318,0.00525153906652564,5.9839393074791e-06,1.59451043354731e-05
-0.00148543128284402,0.00524874956898389,4.54003185596528e-06,1.36260507064737e-05
-0.00148676642696657,0.0052485707550389,3.95642616855492e-06,1.24293833276206e-05
-0.00148680218975557,0.00524879725270255,3.96659623910083e-06,1.13771405397108e-05
-0.00148597964560864,0.00524448187616359,4.57717935084468e-06,7.8359416404569e-06
-0.00148597964560864,0.00523675711374027,5.16906276979635e-06,9.22592399897551e-08
-0.00148725518508286,0.0052280786769437,4.64032273241639e-06,-9.64018293996167e-06
-0.00148851880362742,0.00522176058422092,2.71088600479668e-06,-1.684300746562e-05
-0.00149139174767683,0.00521742136582263,3.94018755067727e-07,-1.9793198922114e-05
-0.00149282225923671,0.00521676571469103,-1.05169798035664e-06,-2.11174245267532e-05
-0.00149360904059464,0.00521532328220149,-1.24232771921016e-06,-2.34866150803611e-05
-0.0014925480778544,0.00521311791021335,-6.79448564983073e-07,-2.56477293917507e-05
-0.00149226197554242,0.00521372587762629,2.69779207719443e-08,-2.40397565584954e-05
-0.00149126061745051,0.0052215936912056,8.03672523457555e-07,-1.69207169120501e-05
-0.00149078378026389,0.00523339541157457,1.89779143675417e-06,-5.56696601450275e-06
-0.00148921021754803,0.00524578125749715,2.79205343206735e-06,7.12672245234676e-06
-0.00149093875234954,0.00525538952680764,1.61832878091809e-06,1.74059445130291e-05
-0.00149544486376315,0.00525943072196428,-3.3802331648207e-06,2.13934480618009e-05
-0.00150393256568507,0.00525714190346848,-1.13785287853095e-05,1.79993796356815e-05
-0.00151098975604712,0.0052493336945375,-1.87616893587944e-05,1.13626499180194e-05
-0.0015142203279865,0.00524510176450621,-2.2159970499972e-05,8.08327266074212e-06
-0.00151358851871422,0.0052493336945375,-2.13901401512386e-05,1.09508248209741e-05
-0.00151125201649976,0.00525443585243439,-1.89956706056211e-05,1.65963575064594e-05
-0.00150916585380827,0.00525672467093019,-1.74266035462347e-05,1.99101394732073e-05
-0.00150913009101928,0.00525630743839189,-1.71549948310492e-05,1.94593737642272e-05
-0.0015088439887073,0.00525487692683202,-1.68699732026778e-05,1.77835029613865e-05
-0.00150614985860287,0.0052542928012784,-1.47105265833448e-05,1.76990781630408e-05
-0.00150130996115863,0.00525567562911961,-9.72022476366026e-06,1.9720816282039e-05
-0.00149469384519421,0.00525816710341973,-2.85112115893781e-06,2.25318515281224e-05
-0.00148718365950487,0.00526050360563419,3.7178521816027e-06,2.45817852905006e-05
-0.00148265370623193,0.00526033671261887,8.73720673672683e-06,2.50119076901072e-05
-0.00147826680411499,0.00525827439178672,1.28487706738481e-05,2.37422514932643e-05
-0.001474344818255,0.00525574715469761,1.68897496991238e-05,2.10329530333595e-05
-0.00147027978123902,0.00525143177815865,2.01279498686654e-05,1.70226079001059e-05
-0.00146965989289641,0.00524586470400481,2.12708254860953e-05,1.19686832822805e-05
-0.00147024401845002,0.00524033339263996,2.05996170795902e-05,6.89845586026271e-06
-0.00147064933005865,0.00523669750909194,1.97270252033344e-05,3.20950419652395e-06
-0.00147068509284765,0.00523386032783153,1.94379719812252e-05,1.0240463596693e-06
-0.00147154339978358,0.00523119003958643,1.9083568675323e-05,-1.51830309060802e-06
-0.00147196063232187,0.00522596867239288,1.81279312810825e-05,-6.50332042125869e-06
-0.00147309312064011,0.0052178147565016,1.69796184936792e-05,-1.39534019850813e-05
-0.00147370108805305,0.00520989925920363,1.5955342104199e-05,-2.20164317498745e-05
-0.00147577532981487,0.00520209105027265,1.45335697366209e-05,-2.93396827663722e-05
-0.00147725352509341,0.00519491465061394,1.21918323501936e-05,-3.6349120101177e-05
-0.00148048409703279,0.00518678457658199,9.24416872799272e-06,-4.38169728898704e-05
-0.00148315438527789,0.00517962009785295,6.38586871120801e-06,-5.09540167577086e-05
-0.00148541936191436,0.00517495901435369,3.93298537468197e-06,-5.5833371677189e-05
-0.00148775586412882,0.00517195494007796,1.75752783528761e-06,-5.75541181891428e-05
-0.00148983010589064,0.00517251522377224,-5.75841715195546e-07,-5.70258341199138e-05
-0.00149255999878407,0.00517497093528336,-3.75052899467489e-06,-5.52106451109817e-05
-0.00149749526366563,0.0051771047816935,-8.10830394775323e-06,-5.14384705769504e-05
-0.00150183448206392,0.00518437654878953,-1.28893145360763e-05,-4.44950199507138e-05
-0.00150524386794829,0.00519357950649139,-1.66524695880914e-05,-3.50800978820491e-05
-0.00150741347714743,0.00520236523165496,-1.86358537361814e-05,-2.5912044490012e-05
-0.00150783070968573,0.00520876677088539,-1.91460717424662e-05,-1.90893897692269e-05
-0.00150710353297612,0.00521246225908174,-1.86056016822841e-05,-1.44631194796779e-05
-0.00150529155166695,0.005217051817003,-1.70656032889914e-05,-1.10630649886163e-05
-0.00150274047271851,0.00521774323092361,-1.48277649238193e-05,-8.67633615522885e-06
-0.00150127419836963,0.00521882803552318,-1.2549530557011e-05,-6.81778155141305e-06
-0.00149757871017329,0.00522334606786645,-1.02392400209318e-05,-3.47043765225462e-06
-0.00149455079403822,0.00522865088156765,-6.9963707120911e-06,3.04930298246611e-06
-0.00149041423144425,0.00523542196961772,-2.3892039373044e-06,1.1357052247503e-05
-0.00148446568754111,0.00524325402040803,2.57978530130694e-06,1.82214017091436e-05
-0.00148029336215814,0.00524697335046371,6.54502811496388e-06,2.2680665818229e-05
-0.00147804030645134,0.00525004895031744,9.26421267325213e-06,2.69468889922351e-05
-0.00147486933916028,0.00525507958263633,1.13823226830237e-05,3.26868865766456e-05
-0.00147339114388175,0.00526125462420312,1.32026936395845e-05,3.845420125684e-05
-0.00147147187420558,0.00526334078689461,1.44155392176675e-05,4.19452287520779e-05
-0.00147110232538595,0.00526385338687023,1.47440671438009e-05,4.30440965107903e-05
-0.00147126921840127,0.00526286394970798,1.42293812152253e-05,4.30791433410886e-05
-0.0014720202369702,0.00526222021950604,1.30919484969369e-05,4.24588492780256e-05
-0.00147296199041378,0.00525980027078392,1.17921426979374e-05,4.09520288415146e-05
-0.00147347459038941,0.00525656969884453,1.09130284914973e-05,3.94418024780733e-05
-0.00147382029734971,0.00525671275000052,1.046558484786e-05,3.93270713804988e-05
-0.00147367724619372,0.00525643856861821,9.62885890947766e-06,4.03497321921485e-05
-0.00147576340888521,0.00525592596864259,7.7115333416261e-06,4.06912578543922e-05
-0.00147780188785803,0.00525368483386545,5.02577879150661e-06,3.92094319894517e-05
-0.0014799953389165,0.00524915488059252,2.21878558932279e-06,3.6154935520106e-05
-0.00148289212482525,0.00524480374126457,-8.73073836055761e-07,3.18573367526699e-05
-0.00148649224558426,0.00523816378344081,-4.9218259734363e-06,2.6451193048583e-05
-0.00149066457096723,0.00523132116981275,-9.90226346344455e-06,2.1061271740061e-05
-0.0014956355986378,0.00522711308164078,-1.50533010872462e-05,1.73505001361238e-05
-0.00150015363098107,0.00522419245387271,-1.99754223471437e-05,1.51115155666694e-05
-0.00150401601219273,0.00521962673781077,-2.48503716207059e-05,1.18550922484296e-05
-0.00150870093755132,0.00521262915209705,-2.9396485183148e-05,5.82605387419583e-06
-0.00151081094210213,0.00520423681761246,-3.24985624685609e-05,-1.75312794444358e-06
-0.00151137122579641,0.00519700081330543,-3.33925318730502e-05,-8.43746789544731e-06
-0.00151020297468918,0.00519086153452763,-3.26600481690207e-05,-1.33922881711305e-05
-0.001508462518958,0.00518593819057573,-3.14883295404067e-05,-1.73051462332317e-05
-0.00150649556556318,0.00518239767446504,-3.02492395878945e-05,-2.06181975837471e-05
-0.0015043736400827,0.00517826111187107,-2.82992246194562e-05,-2.34158839826708e-05
-0.00150059470537869,0.005175304721314,-2.49742158426196e-05,-2.61748601151848e-05
-0.00149505147308418,0.00517206222844495,-2.02277638618825e-05,-2.86548216812509e-05
-0.00148841151526043,0.0051710370284937,-1.4264670429483e-05,-2.84662344399516e-05
-0.00148179539929601,0.00517669947008487,-7.09298034483719e-06,-2.2997280785681e-05
-0.00147225865556351,0.00518631966032503,1.17896711892186e-06,-1.30761803224063e-05
-0.00146291264670567,0.00519539148780057,9.83126154896436e-06,-2.71015163537588e-06
-0.00145527133079,0.00520315201301289,1.77915573414487e-05,5.32201574272556e-06
-0.00144824990321695,0.00521019728244527,2.44648256236467e-05,1.14404504368385e-05
-0.00144191988956451,0.005213272882299,2.98996437686211e-05,1.59679905594973e-05
-0.00143743762001023,0.00521397621714927,3.39665737020826e-05,1.65727914649115e-05
-0.00143574484799772,0.00520887405925238,3.58970563118644e-05,1.12940928358364e-05
-0.00143649586656665,0.00519977838991752,3.51493480627029e-05,2.13872180955784e-06
-0.00143800982463418,0.00519021780432569,3.23424962314807e-05,-7.40904661975352e-06
-0.00144186028491618,0.00518034727456255,2.86048585867348e-05,-1.73197699335555e-05
-0.00144662865678243,0.00516814024258496,2.42745238850353e-05,-2.98202986123457e-05
-0.00145163544724199,0.00515489608972645,1.92616377588357e-05,-4.33590709068352e-05
-0.00145456799593973,0.0051475647179821,1.46380992787262e-05,-5.18338849587642e-05
-0.00145800122368343,0.00514704019707681,1.23918547879397e-05,-5.15874635362014e-05
-0.00145791777717577,0.00515308410841728,1.28055604484822e-05,-4.63760666257878e-05
-0.00145678528885754,0.00515784055935386,1.32180229918346e-05,-4.335814963357e-05
-0.00145884760968969,0.00515489608972645,1.06855028490841e-05,-4.61110778553547e-05
-0.00146511801869381,0.0051479461877314,5.35542116205057e-06,-5.30581242361212e-05
-0.0014708758277223,0.00514321357865414,-3.97062975050381e-08,-6.00364281372873e-05
-0.00147391566478703,0.00514164001593828,-3.73936273570349e-06,-6.19236669911077e-05
-0.00147684821348478,0.0051497462481109,-6.60283500897844e-06,-5.45350846935902e-05
-0.00148109206444574,0.00516581566130016,-1.00516648118124e-05,-3.9227487964594e-05
-0.00148525246889904,0.00518189699541908,-1.37342325646584e-05,-2.47702929410353e-05
-0.00148721942229387,0.00518714220447196,-1.59724306508445e-05,-2.0326800333306e-05
-0.00148663529674025,0.00518265993491768,-1.56307665602051e-05,-2.56123855697477e-05
-0.00148508557588372,0.00517886907928402,-1.26076739222474e-05,-3.06409316210195e-05
-0.00147987612961984,0.00518504412085081,-7.02436252283911e-06,-2.5732934161122e-05
-0.0014716387672209,0.00520215065492097,7.73555253467735e-07,-9.5296983189649e-06
-0.00146347293039995,0.00522553951892492,9.03484133064451e-06,1.2524961245256e-05
-0.00146030196310889,0.0052478435783293,1.43705997586796e-05,3.38385719669682e-05
-0.00146020659567157,0.00526447327521284,1.39395034663147e-05,4.95651409134477e-05
-0.00146574982796608,0.00527401001894534,8.27217310160212e-06,5.74591813006999e-05
-0.00147377261363105,0.00527629883744114,1.33496349713726e-06,5.88123596149017e-05
-0.00147947081801121,0.00527528555841956,-2.87144736099556e-06,5.72971409804e-05
-0.00147918471569924,0.00527505906075591,-3.6077434107278e-06,5.51549443113304e-05
-0.00147967347381553,0.00527192385625385,-2.86589283827673e-06,5.15263203261702e-05
-0.00147993573426817,0.00526664288441198,-2.19961135296289e-06,4.52891934942606e-05
-0.0014792681622069,0.00526055128935285,-1.48696259834333e-06,3.7552084457525e-05
-0.0014795781063782,0.00525285036878886,-8.49268989847187e-07,3.00274315069444e-05
-0.00148109206444574,0.0052470806388307,-1.79067585792927e-06,2.30038555104419e-05
-0.00148464450148609,0.00524263413206542,-4.98643444436922e-06,1.66926511239152e-05
-0.00148837575247143,0.00523809225786282,-8.1340667428168e-06,1.26986459378409e-05
-0.00148979434310164,0.0052379253648475,-7.95025833374712e-06,1.20965697280223e-05
-0.00148521670611004,0.00524154932746585,-4.08548974427634e-06,1.36636655742282e-05
-0.0014815212179137,0.00524446995523393,5.05744087469421e-07,1.61333592519959e-05
-0.00148053178075145,0.00524776013182164,2.99964283238878e-06,2.05243126758649e-05
-0.00148048409703279,0.00525656969884453,2.9330354076774e-06,2.76864165672031e-05
-0.00148295172947357,0.00526512892634445,9.9596927669033e-07,3.50388248697181e-05
-0.00148690947812256,0.00526812107969052,-2.39346794103357e-06,3.88802209251408e-05
-0.00149207124066777,0.00526884825640012,-6.3900651117785e-06,3.91344298191615e-05
-0.00149517068238084,0.00526857407501781,-9.18464415585148e-06,3.86162429561158e-05
-0.00149564751956746,0.00526918204243076,-9.68380463530091e-06,3.79667002902765e-05
-0.00149610051489475,0.00526530774028943,-9.08026197308445e-06,3.46925905656219e-05
-0.00149737605436898,0.00525724919183547,-9.54243689266031e-06,2.75216242563891e-05
-0.00149958142635712,0.00524981053172413,-1.16282767536575e-05,1.84509649428357e-05
-0.00150206097972756,0.00524129898794287,-1.38464923505545e-05,9.63477119680406e-06
-0.00150347957035777,0.00523127348609409,-1.44561071872028e-05,1.29745431233524e-06
-0.00150264510528118,0.00522472889570766,-1.28938079718147e-05,-5.97010992388439e-06
-0.00149952182170879,0.00522190363537691,-9.71037386282235e-06,-9.83539575877792e-06
-0.00149604091024643,0.005220902277285,-5.99675510501292e-06,-9.38035807627308e-06
-0.00149385938011762,0.00522309572834347,-2.92200372206654e-06,-7.64858820080062e-06
-0.00149234542205008,0.00522195131909557,-1.22625900612196e-06,-8.72753830712613e-06
-0.00149260768250273,0.00521711142165133,-9.88945903480572e-07,-1.33994879899159e-05
-0.0014936567243133,0.00521116287774818,-1.96322217171756e-06,-1.93972017031979e-05
-0.00149574288700479,0.00520578653846899,-3.74744933618434e-06,-2.46967788446545e-05
-0.00149824628223457,0.00520137579449271,-5.36798826590818e-06,-2.85972444160173e-05
-0.00149829396595323,0.00519965918062086,-5.36548276075745e-06,-3.0536692162728e-05
-0.0014955640730598,0.00520061285499411,-3.03215743269405e-06,-3.00376865864775e-05
-0.00149282225923671,0.00520246059909228,7.90673485653814e-07,-2.75248599237265e-05
-0.00148913869197003,0.00520591766869531,4.79520885918586e-06,-2.35243963772485e-05
-0.00148490676193874,0.00521335632880666,8.66334790049287e-06,-1.75433024519051e-05
-0.00148130664117972,0.00522072346334001,1.2666343870896e-05,-9.64190868364384e-06
-0.001478052227381,0.00522650511422784,1.62757344585306e-05,-2.82815453484653e-06
-0.00147634753443882,0.00522952110943324,1.83194721204466e-05,-1.57284978179131e-06
-0.00147612103677517,0.00522339375158511,1.84740862580865e-05,-7.17691441232885e-06
-0.0014769078181331,0.00521431000317991,1.75453900675376e-05,-1.60834403032503e-05
-0.00147902974361359,0.00520757467791883,1.61630885633206e-05,-2.35159096212773e-05
-0.00148098477607875,0.00520389111065215,1.42310905291304e-05,-2.76824270880764e-05
-0.00148313054341856,0.00520119698054772,1.19090285557328e-05,-2.98528003108518e-05
-0.00148515710146171,0.00520073206429076,1.00617348359287e-05,-3.15825329281033e-05
-0.00148618230141296,0.00519940884109788,9.19562324299802e-06,-3.29570606839192e-05
-0.00148706445020821,0.0051996114969022,8.77743557851385e-06,-3.30138990975658e-05
-0.00148718365950487,0.00520213873399131,8.14695324232353e-06,-3.11636401006734e-05
-0.00148816117573745,0.0052053335431417,7.34238256620851e-06,-2.85261619143051e-05
-0.00148921021754803,0.00520668060819391,6.45778382591407e-06,-2.79185724493989e-05
-0.00149132022209884,0.00520336658974687,4.96616631572802e-06,-3.13040513603772e-05
-0.00149281033830704,0.00519899160855958,2.39467667381374e-06,-3.65559714853836e-05
-0.00149679192881536,0.0051983955620763,-1.00475128148561e-06,-3.81358940960435e-05
-0.00150100001698732,0.00520452291992443,-4.98442985352227e-06,-3.25743762182481e-05
-0.00150601872837655,0.00521461994735121,-9.94506424909259e-06,-2.25696544560134e-05
-0.00151118049092176,0.00522441895153635,-1.58803356244947e-05,-1.38807808434933e-05
-0.00151722440226223,0.00523123772330509,-2.13175442569712e-05,-8.53179326388979e-06
-0.00152055034163894,0.00523642332770963,-2.45047108082531e-05,-3.33113833257782e-06
-0.00152097949510691,0.0052440646436253,-2.52999258343983e-05,4.4690712981519e-06
-0.00152034768583463,0.00525480540125402,-2.47439153416462e-05,1.25875868963769e-05
-0.00151855954638478,0.00525919230337097,-2.31361146222353e-05,1.65967898174487e-05
-0.00151599654650668,0.00525749953135845,-1.99312451982388e-05,1.57555490115725e-05
-0.00151098975604712,0.00525702269417183,-1.53882617624002e-05,1.35331932594787e-05
-0.00150542268189327,0.0052584174429427,-1.07170308866973e-05,1.29491495555089e-05
-0.00150223979367255,0.00525815518249006,-6.31893486237331e-06,1.39899095242351e-05
-0.00149681577067469,0.0052611234939768,-1.3750138970768e-06,1.59391804147346e-05
-0.00149043807330358,0.00526630909838135,4.36150378257413e-06,1.96474537432374e-05
-0.00148503789216506,0.00527306826550175,9.83371082051996e-06,2.5920571139263e-05
-0.00148085364585243,0.00527997048377815,1.43569569057098e-05,3.32167428808856e-05
-0.00147653826931347,0.0052866104416019,1.84692578561577e-05,3.87663173302344e-05
-0.00147182950209555,0.0052896621995963,2.2158818134153e-05,4.13592338885338e-05
-0.00147072085563665,0.00529097350185952,2.3817114730245e-05,4.17210935772872e-05
-0.00147233018114151,0.00528931649263599,2.24389638272321e-05,4.07966227392932e-05
-0.00147417792523968,0.00528774292992013,1.96477709495386e-05,3.91127297053975e-05
-0.00147564419958855,0.00528836281826274,1.77710241272981e-05,3.73984401863824e-05
-0.00147742041810873,0.00528532298119801,1.67343051204955e-05,3.62307686272166e-05
-0.0014788866924576,0.00528413088823145,1.47575092791164e-05,3.50337099087621e-05
-0.00148116359002373,0.00528342755338118,1.15875876534861e-05,3.27320301431188e-05
-0.00148404845500281,0.0052793267535762,8.87620913223683e-06,2.94213354398008e-05
-0.00148594388281965,0.00527511866540424,7.28237385564349e-06,2.60861222823651e-05
-0.00148706445020821,0.00527254374459647,5.30367395820942e-06,2.2650817862248e-05
-0.00149002084076529,0.00526750119134791,1.69769863312782e-06,1.79066626393127e-05
-0.00149495610564685,0.00526033671261887,-2.54870936336977e-06,1.1773456627749e-05
-0.00149729260786132,0.00525491268962101,-5.6376001625086e-06,5.98445629377604e-06
-0.00149846085896855,0.00524995358288011,-7.28338180238249e-06,1.67193616020632e-06
-0.00149985560773942,0.0052451732900842,-8.76010886047274e-06,-2.19652885006626e-06
-0.00150220403088355,0.00524075062517825,-1.13650719452837e-05,-6.65487655631903e-06
-0.00150587567722056,0.00523663790444362,-1.54589426148684e-05,-1.02593248420008e-05
-0.00151069173280547,0.00523430140222915,-2.03399308754148e-05,-1.06382080563989e-05
-0.00151391038381519,0.00523753197416854,-2.44991381280916e-05,-8.0855221670164e-06
-0.00151658067206029,0.00523890288108008,-2.66024866352407e-05,-5.76096432005336e-06
-0.00151562699768704,0.00523669750909194,-2.67169357965792e-05,-5.99791322816579e-06
-0.00151522168607841,0.00523470671383778,-2.60681207278796e-05,-7.80549756547113e-06
-0.00151369580708121,0.00523360998830855,-2.53201491079857e-05,-8.65878810496477e-06
-0.00151206263971702,0.00523219139767834,-2.38040663379548e-05,-7.69200843889126e-06
-0.00150902280265229,0.00523328812320758,-2.0798729637225e-05,-6.13367421498187e-06
-0.00150417098427838,0.00523346693715256,-1.67689754916117e-05,-5.16433515417713e-06
-0.00150029668213705,0.0052325847883573,-1.27358360203325e-05,-4.70075275626904e-06
-0.00149588593816077,0.00523101122564144,-9.00745894966125e-06,-4.74967704833999e-06
-0.00149205931973811,0.00522784025835039,-5.15161624278944e-06,-6.95749836101842e-06
-0.00148752936646517,0.00522067577962135,-8.63620185181145e-07,-1.33742539035587e-05
-0.00148251065507595,0.00520863564065907,3.61284188628913e-06,-2.34025048638862e-05
-0.001478159515748,0.00519769222722603,7.7075550416032e-06,-3.32626753046714e-05
-0.00147500046938661,0.00519033701362234,1.09643251501803e-05,-3.96460302297168e-05
-0.00147222289277452,0.00518543751152977,1.35557889373837e-05,-4.31677458097955e-05
-0.00146867045573416,0.00518013269782857,1.63707515588862e-05,-4.67017705076194e-05
-0.00146489152103016,0.00517506630272068,2.01218694868724e-05,-5.07766461997245e-05
-0.00146086224680318,0.00517185957264063,2.44103872984537e-05,-5.28053905685982e-05
-0.00145699986559152,0.00517194301914829,2.82505577513483e-05,-5.12113787968464e-05
-0.00145250567510758,0.00517381460510579,3.13329298857493e-05,-4.78078788643255e-05
-0.00145096787518071,0.0051755789026963,3.38504627231405e-05,-4.46649246063622e-05
-0.00144982346593281,0.00517896444672134,3.51170564990327e-05,-4.08711189892266e-05
-0.00145083674495439,0.00518265993491768,3.35684349035883e-05,-3.46955341891368e-05
-0.00145498522847803,0.00518920452530411,2.86221606413808e-05,-2.7112024742966e-05
-0.00146300801414299,0.00519577295754987,2.17426322934926e-05,-1.99060503066221e-05
-0.00146946915802176,0.00520256788745927,1.52675673692126e-05,-1.12158677548699e-05
-0.00147334346016308,0.00521580011938811,1.07124101942951e-05,2.95364391109906e-06
-0.00147567996237755,0.00523330004413724,8.10459553758153e-06,2.20360797925851e-05
-0.00147901782268392,0.00524972708521647,5.95698064132682e-06,3.95484829365935e-05
-0.00148291596668458,0.00526047976377486,1.90202392417357e-06,5.05314515897397e-05
-0.00148936518963368,0.00526465208915782,-5.33625252687407e-06,5.73446463618081e-05
-0.00149890193336618,0.00527184040974619,-1.4274400503045e-05,6.50937053329097e-05
-0.00150733003063977,0.00527983935355183,-2.2094434915705e-05,7.3489676051249e-05
-0.00151302823501994,0.00528231890692227,-2.7832418900282e-05,7.7194349112522e-05
-0.00151740321620722,0.00527659686068278,-3.2674625871419e-05,7.36401354891213e-05
-0.00152242192759645,0.00526974232612504,-3.69356794626666e-05,6.64367360242706e-05
-0.00152484187631857,0.00526241095438069,-3.88323708377926e-05,5.99740343747052e-05
-0.00152280339734575,0.00525485308497268,-3.72279739673076e-05,5.39914669012488e-05
-0.001519942374226,0.00524598391330146,-3.36842936580027e-05,4.57015807119388e-05
-0.00151671180228661,0.00523474247662678,-3.02510569140239e-05,3.50620993166596e-05
-0.0015130759187386,0.00522432358409903,-2.65889515812501e-05,2.50349521972784e-05
-0.00150805720734937,0.00521559746358379,-2.09081011738652e-05,1.73400863998126e-05
-0.00150057086351936,0.00520808727789445,-1.27975143592429e-05,1.06106741462487e-05
-0.00149055728260024,0.00520043404104912,-3.61558319553879e-06,3.10910389345167e-06
-0.00148291596668458,0.00519247086003249,5.23071939396462e-06,-4.72591602638595e-06
-0.00147562035772922,0.00518488914876516,1.31351830465384e-05,-1.13056091552714e-05
-0.00146864661387483,0.00517962009785295,2.00753474875941e-05,-1.60992738869594e-05
-0.00146191128861375,0.00517654449799922,2.65697110631426e-05,-1.97319583421864e-05
-0.00145647534468623,0.00517272980050622,3.31121184880407e-05,-2.26356723102043e-05
-0.00145142087050801,0.00517108471221237,3.88815686094068e-05,-2.46417143176085e-05
-0.00144793995904565,0.00516940386112951,4.21409572928483e-05,-2.56448749914594e-05
-0.00144716509861738,0.00516926080997353,4.2694799403508e-05,-2.59728281379255e-05
-0.00144896515899689,0.00516973764716015,4.2276905532215e-05,-2.62917558171716e-05
-0.00145049103799409,0.00516773493097633,4.12275088216205e-05,-2.75983850554315e-05
-0.00145486601918137,0.00516426594044363,3.67659293621858e-05,-3.08517193757716e-05
-0.00146421202803922,0.00516070158247361,2.67165883294606e-05,-3.58806493751246e-05
-0.00147973307846386,0.00515544445249107,1.34368271396656e-05,-4.09035316565156e-05
-0.00149145135232516,0.00515251190379333,1.5879543469278e-06,-4.38450446397193e-05
-0.00149942645427146,0.00515289337354263,-6.82535406893276e-06,-4.39987962708224e-05
-0.00150535115631528,0.00515611202455235,-1.26526784359034e-05,-4.18818567030207e-05
-0.00151051291886049,0.00515996248483434,-1.61699912951706e-05,-3.79949322205759e-05
-0.00151146659323374,0.00516600639617481,-1.69666590950456e-05,-3.27563259927574e-05
-0.00151013144911119,0.00517194301914829,-1.69201259314773e-05,-2.72238216674126e-05
-0.00151400575125252,0.00517778427468444,-1.95092438820158e-05,-2.23000109135546e-05
-0.00152071723465426,0.00518424541856321,-2.51898164230829e-05,-1.70541415942386e-05
-0.0015251756623492,0.00519179136704155,-3.03641720953697e-05,-9.53508401068603e-06
-0.00152695188086938,0.00520188839446833,-3.2149073125293e-05,-1.0539692113172e-07
-0.00152727374597035,0.00521148474284916,-3.16991695750534e-05,7.39662636703907e-06
-0.00152747640177467,0.00521332056601766,-3.1525243487972e-05,9.08571944026679e-06
-0.00152758369014166,0.00520957739410266,-3.18846291240712e-05,4.9458678613016e-06
-0.00152735719247801,0.00520504744082972,-3.15205549323784e-05,-1.4511059475019e-06
-0.00152626046694878,0.00520132811077405,-2.99958074485471e-05,-6.12479033740356e-06
-0.0015233398391807,0.00520114929682906,-2.72509109501848e-05,-6.66899857280533e-06
-0.00151882180683743,0.00520683558027956,-2.22151775819774e-05,-2.60757911498472e-06
-0.00151072749559447,0.00521411926830526,-1.40195350725623e-05,4.03647226982872e-06
-0.00149995097517675,0.0052204850447467,-4.0200267943958e-06,8.97126624842979e-06
-0.00149164208719981,0.00522103340751132,5.10142954482987e-06,8.67360270601975e-06
-0.00148545512470335,0.00521721871001832,1.20281495777363e-05,3.82839608758017e-06
-0.00147875556223128,0.00521299870091669,1.73792670885116e-05,-1.31122840378399e-06
-0.00147464284149664,0.00521277220325304,2.18867892402198e-05,-2.9680172543582e-06
-0.00147190102767354,0.00521621735192641,2.51672445538774e-05,-2.62181899156326e-07
-0.00147097119515963,0.00522303612369514,2.62818629570688e-05,5.49088541730053e-06
-0.00147175797651756,0.00522978336988588,2.47417186302709e-05,1.1560158580063e-05
-0.00147519120426126,0.00523386032783153,2.10478155702426e-05,1.41383652596953e-05
-0.00148067483190744,0.00523180992792904,1.67740422445745e-05,1.12111248596945e-05
-0.00148315438527789,0.0052273157374451,1.38049750484109e-05,6.54622905717616e-06
-0.00148364314339418,0.00523020060242418,1.28149558507102e-05,8.00017102945958e-06
-0.00148365506432385,0.00524238379254244,1.26038430804432e-05,1.9052893390264e-05
-0.00148588427817132,0.00525676043371918,1.13732332828838e-05,3.33155610421851e-05
-0.00148851880362742,0.00526443751242384,8.50896913656308e-06,4.01587181969916e-05
-0.00149108180350553,0.00526061089400118,4.87696141782999e-06,3.54857484301094e-05
-0.00149472960798321,0.00525112183398734,1.80115904374744e-06,2.49131315660865e-05
-0.00149692305904168,0.00524256260648743,1.43687694566635e-07,1.67598738410348e-05
-0.00149669656137804,0.00524112017399789,-1.09404516787044e-07,1.42970196025606e-05
-0.00149621972419141,0.00524263413206542,-2.19740880754185e-08,1.50151822952192e-05
-0.00149773368225894,0.00524277718322141,-1.25436598447297e-06,1.48619687761751e-05
-0.00150126227743997,0.00523908169502507,-4.76653346307944e-06,1.17299083017924e-05
-0.00150692471903114,0.0052352550766024,-9.83331798996198e-06,6.21557400210092e-06
-0.00151063212815715,0.00522950918850357,-1.4635247050281e-05,6.08530807375443e-07
-0.00151392230474486,0.00522534878405027,-1.78838388842832e-05,-2.95232121839056e-06
-0.00151702174645792,0.00522534878405027,-1.97200385330732e-05,-3.86295946609307e-06
-0.00151748666271488,0.00522708923978145,-2.1043580019279e-05,-2.64497006072395e-06
-0.00151853570452545,0.00522917540247294,-2.21316153140629e-05,2.49872227604314e-07
-0.00151823768128381,0.00523314507205159,-2.20524696162865e-05,4.22210526087079e-06
-0.00151672372321628,0.00523743660673121,-1.95405899073072e-05,7.68651949994606e-06
-0.0015115142769524,0.00523885519736142,-1.44183946379213e-05,9.32014320729143e-06
-0.00150402793312239,0.00523873598806476,-7.92857153216897e-06,1.02226185943631e-05
-0.00149836549153122,0.00524152548560652,-1.61260797840645e-06,1.26658870598542e-05
-0.00149376401268029,0.00524585278307514,3.82730061072725e-06,1.60653689937716e-05
-0.00148857840827575,0.00524501831799855,8.53170387050733e-06,1.67308814459258e-05
-0.00148366698525351,0.00524121554143521,1.29896132402559e-05,1.33003818333394e-05
-0.00147930392499589,0.00523878367178343,1.78457666272004e-05,1.0095651281282e-05
-0.00147463092056697,0.00524089367633424,2.34117423655271e-05,1.2254699765848e-05
-0.00146887311153848,0.00524575741563782,2.866885364843e-05,1.87786938063581e-05
-0.00146551140937277,0.00525096686190169,3.14791989051296e-05,2.35218115574686e-05
-0.00146707305115897,0.00525054962936339,3.08357820456071e-05,2.27031816474234e-05
-0.00147025593937969,0.00524536402495885,2.84042278249431e-05,1.82582400022006e-05
-0.00147094735330029,0.00523947508570403,2.65728853644203e-05,1.335242642354e-05
-0.00147283086018746,0.00523462326733013,2.52570553669842e-05,7.88041481332078e-06
-0.00147637137629815,0.0052268985049068,2.21408282305269e-05,1.1816549603904e-07
-0.00148251065507595,0.00521608622170008,1.61996277601782e-05,-9.55946903618117e-06
-0.00148919829661836,0.00520715744538053,9.36619655665778e-06,-1.88813484998854e-05
-0.00149436005916357,0.00519930155273089,4.03207192495965e-06,-2.63102140471467e-05
-0.0014990330635925,0.00519411594832635,2.86818014767866e-07,-3.15517655075932e-05
-0.00150220403088355,0.00519139797636258,-3.25635299982066e-06,-3.4467972399086e-05
-0.00150595912372822,0.00518945486482709,-6.86310345545319e-06,-3.55080017648113e-05
-0.00150858172825466,0.00518839390208685,-9.32033238893858e-06,-3.66169848713611e-05
-0.00150930890496426,0.00518689186494898,-9.93575925788538e-06,-3.95577988382809e-05
-0.00150920161659727,0.00518162281403677,-9.74487776763009e-06,-4.31540953936295e-05
-0.00151001223981453,0.00518122942335781,-1.04885844170122e-05,-4.3854065612948e-05
-0.00151281365828595,0.00518666536728533,-1.29687292490598e-05,-3.95238408812739e-05
-0.00151569852326504,0.00519417555297467,-1.65435999667403e-05,-3.16928216488344e-05
-0.001519906611437,0.00520147116193003,-1.9834675864725e-05,-2.39434927552709e-05
-0.00152148017415286,0.00520734818025518,-2.17999145915098e-05,-1.91435371087423e-05
-0.0015221954299328,0.00520854027322175,-2.23443753557518e-05,-1.8199215357921e-05
-0.00152128943927821,0.00520659716168625,-2.19718557877799e-05,-1.99166613377611e-05
-0.00152074107651359,0.00520614416635896,-2.08576757132572e-05,-2.13704011536367e-05
-0.00151846417894746,0.00520794422673847,-1.85400816201299e-05,-1.97413332607341e-05
-0.00151432761635349,0.00521284372883104,-1.47528684672413e-05,-1.51301246744173e-05
-0.00150907048637095,0.00521786244022026,-1.02744179966368e-05,-1.10729846051536e-05
-0.00150648364463351,0.00521832735647722,-6.45825956854561e-06,-1.10428269519081e-05
-0.0015035391750061,0.0052151444682565,-3.89084599424399e-06,-1.43278984446784e-05
-0.00150030860306672,0.00521478684036653,-1.92616370550462e-06,-1.62602899878082e-05
-0.00149883040778818,0.00521776707278294,2.39153927954003e-07,-1.29706919859917e-05
-0.00149691113811202,0.00522683890025847,2.34797780903896e-06,-5.40820897574226e-06
-0.00149517068238084,0.00523473055569712,3.3816909240978e-06,1.95184778246513e-06
-0.00149505147308418,0.00523917706246239,3.05594450554966e-06,6.13685400119649e-06
-0.00149555215213014,0.00524277718322141,2.50594694732769e-06,8.52561962595239e-06
-0.0014952541288885,0.00524823696900826,3.11538882111599e-06,1.24413868421118e-05
-0.00149260768250273,0.00525437624778606,4.95810270319893e-06,1.90320296268063e-05
-0.00149012812913228,0.00526301892179363,6.91339572100758e-06,2.67295678450486e-05
-0.00148897179895471,0.00527259142831513,8.18271238152053e-06,3.408422417649e-05
-0.00148775586412882,0.00527964861867718,9.02145387788317e-06,4.1094349787279e-05
-0.00148702868741922,0.0052858832648923,9.85547614957188e-06,4.73078967260293e-05
-0.00148485907822007,0.00529112847394517,1.03639708431119e-05,5.06586749950402e-05
-0.00148614653862396,0.00529162915299112,9.8131522933048e-06,4.97036931487336e-05
-0.00148810157108912,0.00528719456715551,7.79339169090418e-06,4.58197498316092e-05
-0.00149011620820261,0.00528441699054342,4.29088972783908e-06,4.1608023100799e-05
-0.00149488458006886,0.00528167517672033,-3.70913765324312e-07,3.79947000922458e-05
-0.00149967679379444,0.00527973206518483,-5.17890143772919e-06,3.44597878429431e-05
-0.00150232324018021,0.00527571471188752,-8.69984136948671e-06,3.10652957547539e-05
-0.00150381335638841,0.00527410538638266,-1.05386859194481e-05,2.79526503299467e-05
-0.00150519618422962,0.00527045758190498,-1.20910251733062e-05,2.33897763901857e-05
-0.00150717505855412,0.00526301892179363,-1.48354199607167e-05,1.5250381474504e-05
-0.00151009568632219,0.00525307686645251,-1.80033757038881e-05,5.01191632148179e-06
-0.0015108228630318,0.00524622233189477,-1.89755733805533e-05,-2.48185824051486e-06
-0.00150740155621776,0.00524501831799855,-1.61862472712384e-05,-4.78734186746033e-06
-0.00150135764487729,0.00524474413661624,-1.07669265824651e-05,-5.356038424952e-06
-0.00149526604981816,0.00524096520191224,-4.98310056939096e-06,-9.40585921826995e-06
-0.00149059304538924,0.00523319275577025,1.1829193454521e-07,-1.78280247697139e-05
-0.00148396500849515,0.00522409708643538,4.88414713050876e-06,-2.73121594561843e-05
-0.00147945889708155,0.00521643192866039,9.55944357561814e-06,-3.53720009069387e-05
-0.00147553691122156,0.00520957739410266,1.36884735731513e-05,-4.25338398355079e-05
-0.00147107848352662,0.00520242483630328,1.70769269454005e-05,-4.95463973908752e-05
-0.0014675141255566,0.00519750149235138,2.04371048288376e-05,-5.49119958905972e-05
-0.00146256693974536,0.00519646437147047,2.4361286040438e-05,-5.62292891911835e-05
-0.00145983704685194,0.0051999214410735,2.79436113311328e-05,-5.26161694805591e-05
-0.00145779856787911,0.00520707399887288,2.9295198654718e-05,-4.5033015219245e-05
-0.00145748862370781,0.005217087579792,2.77297979986908e-05,-3.54448150074418e-05
-0.00146199473512141,0.00522567064915124,2.46860853862191e-05,-2.6534842517856e-05
-0.00146427163268755,0.00523124964423475,2.17330397263051e-05,-2.09825042488223e-05
-0.00146654853025368,0.00523161919305439,1.82524070952426e-05,-1.94167980821511e-05
-0.00147268780903147,0.00523204834652235,1.24463666626007e-05,-1.93093593248037e-05
-0.00147985228776051,0.00523413450921383,4.68828270115546e-06,-1.70634524365572e-05
-0.00148646840372493,0.00523893864386908,-1.72613417137167e-06,-1.12698734602096e-05
-0.00148799428272213,0.0052459362295828,-4.11307577331083e-06,-3.18179125960345e-06
-0.00148712405485654,0.00525513918728466,-3.59022563184212e-06,5.6754304894771e-06
-0.0014872075013642,0.00526348383805059,-3.5159704059023e-06,1.49745523269447e-05
-0.00148891219430639,0.00527172120044954,-5.52294103918921e-06,2.43462882525251e-05
-0.00149132022209884,0.00527880223267092,-8.56047103189088e-06,3.21300440887543e-05
-0.00149412164057026,0.00528227122320361,-1.13608310452388e-05,3.66674097839526e-05
-0.0014963270125584,0.00528382094406014,-1.39380083710404e-05,3.83220286723895e-05
-0.00149894961708484,0.00528280766503857,-1.63648106383843e-05,3.89451881040498e-05
-0.00149964103100544,0.00528157980928301,-1.79268008357551e-05,3.93339063349337e-05
-0.00150072583560502,0.00528023274423079,-1.85702130381166e-05,3.83335779429279e-05
-0.00150111922628398,0.00527635844208946,-1.98917642043253e-05,3.48586566368938e-05
-0.00150507697493297,0.00526888401918912,-2.31903800446708e-05,2.99843333823512e-05
-0.00150828370501302,0.00526411564732287,-2.70995561682719e-05,2.63514769346764e-05
