BCL,BCC,BCL_Filtered,BCC_Filtered
-,-,-,-
-0.00192890178733479,-0.000904083305840689,4.36338777237395e-21,-2.08209113363439e-21
-0.00192489635496714,-0.000898623520053835,4.5945251749838e-06,4.10754741200829e-06
-0.00191881668083767,-0.000899684482794075,9.26760079844506e-06,5.40583887144662e-06
-0.00191657554606053,-0.000903391891920083,1.02081632786209e-05,2.18539116815793e-06
-0.00192264329926034,-0.000907862240544691,4.42699665964136e-06,-3.68495694844576e-06
-0.00193287145691344,-0.000911140496202737,-4.54356808512042e-06,-6.91334293659783e-06
-0.00193617355443082,-0.000909650379994534,-1.00717897728283e-05,-3.84946607482712e-06
-0.00193495761960492,-0.000902295166390846,-9.64484044856928e-06,3.54574925373545e-06
-0.00193127405233825,-0.000894570403967524,-5.32742864703273e-06,1.06191663642771e-05
-0.00192568313632507,-0.000889635139085957,4.81821612682282e-07,1.53061034873407e-05
-0.00191919815058697,-0.000888574176345716,6.00409244132035e-06,1.79206209854459e-05
-0.00191470396010303,-0.00088959937629696,9.09085658539189e-06,1.73790516732901e-05
-0.00191473972289203,-0.000893342548211965,9.3654189589155e-06,1.18553578799659e-05
-0.00191568147633561,-0.000902736240788474,9.87818361900479e-06,3.49015377265011e-06
-0.00191022169054876,-0.000909161621878244,1.32550151442425e-05,-1.49107132583615e-06
-0.00190469037918391,-0.000906217152250835,1.7807261761779e-05,7.42967765212038e-07
-0.00190274726764841,-0.000898981147943803,2.03875454375328e-05,7.34491088520163e-06
-0.00190355789086568,-0.000894796901631171,2.0746672391591e-05,1.25563013342106e-05
-0.00190345060249869,-0.000894677692334514,1.96933962917653e-05,1.37559408418902e-05
-0.00190358173272501,-0.00089507108301348,1.57342047292913e-05,1.2139985729224e-05
-0.00191717159254382,-0.000898444706108851,7.9551983539376e-06,9.45255064067423e-06
-0.00192190420162107,-0.000901472622243918,2.966314453673e-08,6.6297918742467e-06
-0.00192434799220252,-0.000903976017473699,-3.42447265504659e-06,4.81265779608682e-06
-0.00192451488521784,-0.000903761440739717,-2.89682482476161e-06,5.10408617104076e-06
-0.00192412149453887,-0.000901067310635287,-1.8787925369217e-06,6.95254968674336e-06
-0.00192209493649572,-0.00090111499435395,-6.00838544135964e-07,8.32984005333208e-06
-0.00191818487156539,-0.000902009064078871,2.8562162108298e-06,7.92503182857981e-06
-0.00191416751826808,-0.000902652794280815,6.69711456502717e-06,6.15138416629226e-06
-0.0019146443554547,-0.00090593104993886,6.77013746297217e-06,3.81736345731715e-06
-0.00191788684832375,-0.000909435803260553,3.51763338206679e-06,9.51767593478681e-07
-0.00191904317850132,-0.000912535244973614,1.60440566597194e-06,-2.44151846371953e-06
-0.00191838752736971,-0.000915360505304367,2.13681911274966e-06,-5.25787645078715e-06
-0.00191996109008557,-0.000916802937793907,1.12358614484561e-06,-5.93693971908837e-06
-0.00192447912242884,-0.000915288979726373,-3.09524353194409e-06,-4.32464316436017e-06
-0.00192686330836197,-0.000912892872863583,-6.64961669214101e-06,-2.24583515900963e-06
-0.00192707788509595,-0.000913190896105224,-6.57261186351951e-06,-1.69504617384835e-06
-0.00192668449441698,-0.000914335305353123,-5.34528083062403e-06,-2.68149508126003e-06
-0.00192686330836197,-0.000914812142539748,-6.16940247984556e-06,-3.58875164969382e-06
-0.00192840110828883,-0.00091570621226467,-7.95032183010747e-06,-3.7252071562928e-06
-0.00192909252220944,-0.000916719491286247,-8.14865556910924e-06,-4.43137938399847e-06
-0.00192804348039886,-0.000919067914430375,-7.23014247869386e-06,-6.92761935132858e-06
-0.00192780506180555,-0.000922262723580761,-7.10501809814222e-06,-1.0119418483863e-05
-0.00192881834082713,-0.000924944932755526,-7.75824990693928e-06,-1.19783202274972e-05
-0.00192900907570178,-0.000925111825770844,-8.26167699200939e-06,-1.25569037500023e-05
-0.00192959320125539,-0.000927436407055641,-8.92645276201952e-06,-1.39385846556669e-05
-0.00193111908025259,-0.000929820592988765,-9.97885941831033e-06,-1.72594268987118e-05
-0.0019313932616349,-0.000934696253222004,-1.01828170636588e-05,-2.14175803775554e-05
-0.00192974817334105,-0.00093941694136959,-9.03051216938426e-06,-2.48173741085273e-05
-0.00192885410361612,-0.000939512308806914,-8.21388514246969e-06,-2.66385138329403e-05
-0.00193049919190998,-0.000939917620415546,-8.75919575604717e-06,-2.61840324589801e-05
-0.00192998659193436,-0.000937962587950384,-8.90531769857821e-06,-2.3113796216381e-05
-0.00192767393157923,-0.00093328958352146,-7.13782881929216e-06,-1.90618478271626e-05
-0.00192652952233133,-0.00093097692316633,-5.04710922329148e-06,-1.68007304211445e-05
-0.00192571889911407,-0.000931322630126633,-4.44915060214504e-06,-1.64602075405385e-05
-0.00192511093170112,-0.000929772909270102,-3.75449633220107e-06,-1.45390620263363e-05
-0.0019212008667708,-0.000923442895617658,-4.27189558403315e-07,-8.31902276162858e-06
-0.00191706430417683,-0.000914955193695735,4.40098626667045e-06,5.37949410933864e-07
-0.00191425096477574,-0.000906717831296791,7.15991253672963e-06,8.64636176204492e-06
-0.00191425096477574,-0.000901210361791275,6.97191531711428e-06,1.52078454382133e-05
-0.00191484701125902,-0.000895166450450805,6.44094237415561e-06,2.10773741397588e-05
-0.00191348802527714,-0.000891113334364494,7.58006808620242e-06,2.51617117455863e-05
-0.00191178333233496,-0.000891625934340115,9.80161157544751e-06,2.52996223130306e-05
-0.00190938722547217,-0.000894868427209164,1.20451415779095e-05,2.23744107431602e-05
-0.00190680038373473,-0.000897491031735601,1.42242115645811e-05,2.0097158142577e-05
-0.00190534603031552,-0.000897741371258579,1.59049678072291e-05,2.01135071776014e-05
-0.00190581094657248,-0.000897693687539916,1.56006349236258e-05,2.0221950509614e-05
-0.00190932762082384,-0.000900566631589331,1.22296244226443e-05,1.83196318780285e-05
-0.00191487085311835,-0.000903904491895705,6.04300819664815e-06,1.53896534134882e-05
-0.00192312013644696,-0.000905764156923542,-2.11235044013479e-06,1.32779501058053e-05
-0.00193256151274213,-0.00090794568705235,-1.10177815317909e-05,1.19960570778005e-05
-0.00193986904262716,-0.000909566933486875,-1.83151082181425e-05,1.09867825424996e-05
-0.00194139492162436,-0.000909888798587847,-2.10791400205413e-05,1.09641159440591e-05
-0.00193916570777689,-0.000909102017229916,-1.79927460488513e-05,1.23309036251172e-05
-0.00193206083369618,-0.000908148342856666,-1.03161995012586e-05,1.32756461788446e-05
-0.0019212008667708,-0.000911021286906081,-6.25798485560388e-07,1.17285696542153e-05
-0.00191198598813927,-0.000914979035555067,8.49183347879764e-06,8.25531130141871e-06
-0.0019067050162974,-0.000918233449353781,1.46600848357776e-05,4.85460893730946e-06
-0.00190455924895759,-0.00092234617008842,1.62906306657639e-05,1.6564168597474e-06
-0.00190647851863375,-0.00092781787680494,1.3836979625298e-05,-2.79043358571502e-06
-0.00191112768120335,-0.000933599527692767,9.67241704207167e-06,-8.2025921914449e-06
-0.0019143701740724,-0.00093750959262309,5.9847137156253e-06,-1.20292796641615e-05
-0.00191745769485579,-0.000939393099510258,3.18141514009672e-06,-1.27841909374502e-05
-0.00191957962033627,-0.000939321573932265,6.5841114759358e-07,-1.19671904672841e-05
-0.00192136775978611,-0.000939500387877249,-1.57848359180734e-06,-1.18375678204692e-05
-0.00192309629458763,-0.000940978583155786,-2.73223377574434e-06,-1.27412867379464e-05
-0.00192229759230003,-0.000942730959816632,-2.32658652351568e-06,-1.34716913783046e-05
-0.00192022335053821,-0.00094221835984101,-8.76536214148602e-07,-1.30310894906724e-05
-0.00191915046686831,-0.00094172960172472,5.79196868477414e-07,-1.11625672553269e-05
-0.00191802989947974,-0.000939297732072933,1.29584225505236e-06,-8.18900097011282e-06
-0.00191816102970606,-0.000935983713625891,1.13045676971166e-06,-5.18701110622011e-06
-0.0019185305785257,-0.000935161169478963,3.46695975738876e-07,-3.35695931618473e-06
-0.00191888820641567,-0.000935936029907228,-4.98781623730307e-07,-2.32176440485411e-06
-0.00191942464825062,-0.000932586248671189,-3.78430268233301e-07,3.04164167811523e-08
-0.00191625368095956,-0.000927758272156612,2.00577625645609e-06,4.99521530865366e-06
-0.00191016208590043,-0.000923645551421973,7.08285149835918e-06,1.11458971611806e-05
-0.00190492879777722,-0.000919103677219372,1.32955015662319e-05,1.60517129328565e-05
-0.00190033923985596,-0.000914955193695735,1.76842897450927e-05,1.91747857386702e-05
-0.00189788352834484,-0.000913274342612883,1.80041326471066e-05,2.18885606921011e-05
-0.00190322410483504,-0.000910806710172099,1.41035161734407e-05,2.52572643140238e-05
-0.00190962564406548,-0.000907874161474357,7.24180141594706e-06,2.90327407849792e-05
-0.00191714775068448,-0.000903201157045433,-1.30770680850053e-06,3.21972592752554e-05
-0.00192581426655139,-0.00090285545008513,-1.06272119602748e-05,3.30727557235318e-05
-0.00193579208468152,-0.000908625180043291,-1.97308584656225e-05,2.9591488211662e-05
-0.00194255125180192,-0.000915539319249351,-2.74299326539518e-05,2.13961438699426e-05
-0.00194653284231024,-0.000924539621146895,-3.25032695900012e-05,1.14376521877925e-05
-0.00194809448409644,-0.000933802183497082,-3.37871532972891e-05,3.46262304797635e-06
-0.00194479238657906,-0.00094039445760217,-3.05723768762067e-05,-2.17108051007878e-06
-0.0019366980753361,-0.000944936331804772,-2.34626863009995e-05,-8.18451591128482e-06
-0.00192722093625193,-0.000952208098900801,-1.46317727262309e-05,-1.58424003201737e-05
-0.00191959154126594,-0.00096054082873707,-6.68901120671833e-06,-2.32553184268329e-05
-0.00191328536947282,-0.000966048298242587,-1.11426169835589e-06,-2.8851745953688e-05
-0.00190932762082384,-0.000970494805007863,2.26641826054707e-06,-3.3737777818522e-05
-0.00190647851863375,-0.000974381028078856,4.56075218187849e-06,-3.90228864818414e-05
-0.00190474998383224,-0.000979483185975741,6.60626469546456e-06,-4.32776911425675e-05
-0.00190207969558714,-0.000981497823089231,8.09201975686464e-06,-4.48920975191052e-05
-0.0019021273793058,-0.000979828892936044,7.82906909812574e-06,-4.50707334215017e-05
-0.00190470230011358,-0.000980281888263338,5.30751455067809e-06,-4.59868189990909e-05
-0.00190730106278068,-0.000981950818416525,1.87080726716504e-06,-4.73490802862692e-05
-0.00190912496501952,-0.000981938897486859,-3.42555418624041e-07,-4.72787149012709e-05
-0.00190938722547217,-0.000978040753486201,-5.45771468761867e-07,-4.53019871229421e-05
-0.00190799247670129,-0.000974071083907549,4.61024315214988e-07,-4.1704033813668e-05
-0.00190578710471315,-0.000967514572591458,1.95362537766777e-06,-3.50453733936842e-05
-0.00190426122571595,-0.000955593642925837,3.65776099743392e-06,-2.37080483663885e-05
-0.00190316450018671,-0.00094058519247682,4.32636893063079e-06,-9.63097029958174e-06
-0.00190565597448683,-0.000926339681526403,2.16344271684212e-06,2.73295609946707e-06
-0.00190875541619989,-0.000919115598149037,-1.99288834559677e-06,1.12802785560957e-05
-0.00191077005331338,-0.000912225300802308,-3.88548213870859e-06,1.70039046051242e-05
-0.00190845739295825,-0.000907468849865726,-6.58871253572756e-07,2.0022540976154e-05
-0.0019025803746331,-0.00090794568705235,4.43984708851835e-06,1.90714102301175e-05
-0.00190114986307322,-0.000911235863640062,4.81900077899678e-06,1.62270709466497e-05
-0.00190994750916645,-0.000908112580067669,-1.88931504581833e-06,1.78167824744372e-05
-0.00191866170875202,-0.000897455268946604,-1.11992103755218e-05,2.74160054517217e-05
-0.00192397844338289,-0.000884103827721109,-1.713968909846e-05,4.05224013585809e-05
-0.00192569505725473,-0.000874519400269949,-1.82018391683378e-05,4.93812639132027e-05
-0.00192545663866142,-0.000872325949211475,-1.70349458506214e-05,5.12630150324313e-05
-0.00192457448986617,-0.000873446516600044,-1.60913122641041e-05,4.8763650182258e-05
-0.00192339431782927,-0.000878131441958632,-1.52885910511054e-05,4.35983079612981e-05
-0.00192222606672204,-0.000886988692700189,-1.32172079094929e-05,3.45684003045222e-05
-0.00191931735988363,-0.000898790413069154,-9.06363167099098e-06,2.21177903344478e-05
-0.00191347610434747,-0.000909113938159581,-3.14778615607594e-06,1.09782804660718e-05
-0.00190629970468877,-0.000913345868190877,3.74823661571644e-06,5.93734587143541e-06
-0.00190054189566027,-0.000912916714722914,1.12738596027534e-05,6.58884444875304e-06
-0.00189341317972023,-0.000910782868312768,1.95051652890866e-05,8.10712150269952e-06
-0.00188516389639162,-0.000912010724068327,2.76130732606671e-05,6.43864520670761e-06
-0.00188050281289237,-0.000915980393646979,3.29164229497625e-05,1.31574290238728e-06
-0.00188268434302117,-0.000923287923532005,3.26297033000247e-05,-5.26918457766293e-06
-0.00188921701247793,-0.000929737146481105,2.71685866835671e-05,-1.16622815284563e-05
-0.00189542781683372,-0.000933396871888451,2.07430686043405e-05,-1.68694169756435e-05
-0.00189998161196599,-0.00093606716013355,1.77422581135973e-05,-1.95817826973331e-05
-0.00190088760262058,-0.000936520155460844,1.88839069478347e-05,-1.87840329268969e-05
-0.0018987299143511,-0.000932741220756842,2.13204749394894e-05,-1.57127087827524e-05
-0.00189908754224107,-0.000929236467435149,2.18294266251846e-05,-1.36355317974059e-05
-0.00190339099785036,-0.000931394155704627,1.93686864751754e-05,-1.43283584401066e-05
-0.00190882694177788,-0.000933408792818117,1.53793102128782e-05,-1.5698246651936e-05
-0.00191249858811489,-0.000930631216206027,1.25227831654829e-05,-1.46280920692537e-05
-0.00191339265783981,-0.000928318555850896,1.2545566595917e-05,-1.15385421640356e-05
-0.00191380989037811,-0.000927639062859956,1.44101697423944e-05,-9.71334120055378e-06
-0.00191434633221306,-0.000927293355899653,1.49073539466053e-05,-9.96064373167004e-06
-0.00191797029483141,-0.00092580323969145,1.1978845985586e-05,-8.78753740649245e-06
-0.00192484867124848,-0.000921750123605139,7.03739185321644e-06,-3.21705245010742e-06
-0.00193030845703533,-0.00091331010540188,3.15950923193664e-06,5.073659144584e-06
-0.00193254959181247,-0.000905740315064211,1.60795499171829e-06,1.25929551279701e-05
-0.00193439733591064,-0.000900137478121369,1.39650959568659e-06,1.90598829613813e-05
-0.00193547021958054,-0.000892782264517681,1.74222630599849e-06,2.66653928319377e-05
-0.00193548214051021,-0.000885164790461349,3.0295148892221e-06,3.52331013263854e-05
-0.0019344092568403,-0.000878644041934254,5.05697303807956e-06,4.12645960947513e-05
-0.00193483841030827,-0.000878679804723251,6.19481392906292e-06,4.20954461041317e-05
-0.00193693649392942,-0.000883710437042143,5.31121343643217e-06,3.85192518029369e-05
-0.00193995248913482,-0.00088902717167301,3.19166286554744e-06,3.26766751699019e-05
-0.00194383871220581,-0.000896394306206364,8.06037342547952e-07,2.55851813923422e-05
-0.00194798719572945,-0.000905430370892904,-2.68848355792017e-06,1.78306816782392e-05
-0.00195522320003648,-0.00091388231002583,-8.4417555123211e-06,1.08156157952498e-05
-0.00196249496713251,-0.000917398984277188,-1.48831085508421e-05,5.69316528269562e-06
-0.00196648847857049,-0.000922572667752067,-1.82562322475387e-05,2.01183062996238e-06
-0.00196620237625851,-0.000927460248914972,-1.68652817352493e-05,-1.31540058486897e-06
-0.00196429502751202,-0.000930571611557699,-1.35412839349887e-05,-4.46439680214148e-06
-0.00196315061826412,-0.000933003481209486,-1.29938061451109e-05,-7.35739551976269e-06
-0.00196912300402659,-0.000937950667020718,-1.73789101931606e-05,-1.12199411960948e-05
-0.00197758686408918,-0.00094671255032495,-2.51541452020767e-05,-1.78759483872207e-05
-0.00198642027297141,-0.000954949912723894,-3.3542123529751e-05,-2.72427096858122e-05
-0.00199314367730282,-0.000964081344847759,-4.08977020339647e-05,-3.65897488533875e-05
-0.00200083267693714,-0.000972640572347675,-4.66445133839779e-05,-4.28599251037211e-05
-0.0020043493511885,-0.000975501595467424,-5.00247619661384e-05,-4.52962546609592e-05
-0.00200312149543294,-0.000974643288531499,-4.99078379139947e-05,-4.54020410961428e-05
-0.0020001889467352,-0.000974643288531499,-4.60309161232374e-05,-4.46304586111524e-05
-0.00199520599813497,-0.000974011479259221,-3.99929503142203e-05,-4.26736862263915e-05
-0.00198849451473323,-0.000969970284102576,-3.41987373578669e-05,-3.82458852052049e-05
-0.00198228371037744,-0.000961887893789285,-2.92151375487139e-05,-3.12950842416945e-05
-0.00197777759896383,-0.000955808219659818,-2.27216862139001e-05,-2.39034569807132e-05
-0.00196721565528009,-0.000951314029175879,-1.24135113170721e-05,-1.86015857664494e-05
-0.0019523025722684,-0.000948083457236496,-7.73635790115621e-09,-1.58654221215506e-05
-0.0019439102377838,-0.000946188029419662,9.56237128731844e-06,-1.35980328704983e-05
-0.00194002401471281,-0.000941646155217061,1.42020560086257e-05,-9.16130584384682e-06
-0.00193377744756803,-0.00093538766714261,1.80418924682373e-05,-1.82809747548527e-06
-0.0019256712153954,-0.000926744993135035,2.60483845584158e-05,6.58841858943135e-06
-0.0019158602902806,-0.000919389779531346,3.5968135456797e-05,1.32316391689421e-05
-0.00191206943464693,-0.000917387063347522,3.92754375049956e-05,1.6502962275296e-05
-0.0019184948157367,-0.000915932709928316,3.1395300222365e-05,1.73783013547296e-05
-0.00193138134070524,-0.000915288979726373,1.79492591212247e-05,1.84626577262892e-05
-0.00194059621933676,-0.000911903435701336,8.39952737993155e-06,2.13098142234151e-05
-0.00194300424712922,-0.000908923203284931,5.66283666374403e-06,2.46982927323999e-05
-0.00194151413092101,-0.000907278114991076,5.24884445977327e-06,2.60868812007155e-05
-0.0019428373541139,-0.000909042412581587,3.38663519323851e-06,2.47149442818726e-05
-0.00194438707497043,-0.000910663659016112,1.74754743004033e-06,2.23867043419922e-05
-0.00194160949835834,-0.000912094170575986,3.30452699399666e-06,2.09220817314561e-05
-0.00193643581488346,-0.000913548523995192,7.19081937166124e-06,1.99405071898477e-05
-0.00193256151274213,-0.000914669091383761,1.01134360165589e-05,1.80888847476238e-05
-0.00193187009882153,-0.000917303616839863,1.08767996357744e-05,1.55575954183575e-05
-0.00193052303376931,-0.00091869836561074,1.09202297610585e-05,1.37906477187684e-05
-0.00192835342457017,-0.000919294412094021,1.12032148709711e-05,1.28836441235003e-05
-0.00192897331291278,-0.000921797807323802,1.08884347937323e-05,1.10981956998106e-05
-0.00192970048962238,-0.000923848207226289,9.17233821278701e-06,7.69806749107436e-06
-0.00193078529422195,-0.000926601941979047,6.7506658904233e-06,4.77764150841327e-06
-0.00193170320580621,-0.000927317197758984,5.06088732229212e-06,4.85354497552401e-06
-0.00193095218723727,-0.00092368131421097,5.06932192891786e-06,7.41174492952481e-06
-0.00192832958271084,-0.000921571309660155,7.01736133120692e-06,9.39375403899848e-06
-0.00192425262476519,-0.000921773965464471,1.04614766083071e-05,8.8433079776791e-06
-0.00191895973199366,-0.000924158151397595,1.42032636151705e-05,6.51199555643714e-06
-0.00191588413213993,-0.000926697309416372,1.67863602565544e-05,3.77908126624061e-06
-0.00191565763447628,-0.000929260309294481,1.74672853010006e-05,7.48255478383118e-07
-0.00191440593686139,-0.000932002123117573,1.65350509594744e-05,-2.80811748963611e-06
-0.00191577684377294,-0.000936114843852213,1.46579233687433e-05,-6.18820858078593e-06
-0.0019184590529477,-0.000938797053026977,1.20954780759722e-05,-8.91013755351509e-06
-0.0019215465737311,-0.000940370615742839,8.4150247894214e-06,-1.21610499414646e-05
-0.0019257069781844,-0.000946068820123006,2.83924327077991e-06,-1.73354533303392e-05
-0.00193272840575745,-0.000952708777946757,-4.71298727351396e-06,-2.34089092578427e-05
-0.00194151413092101,-0.000955903587097143,-1.25667044996709e-05,-2.75055981557351e-05
-0.0019447447028604,-0.000956034717323465,-1.77840954558262e-05,-2.83733002617412e-05
-0.00194538843306234,-0.000955796298730153,-1.84617113086449e-05,-2.78089606412788e-05
-0.00194202673089664,-0.000956523475439756,-1.54422794119126e-05,-2.80006902806791e-05
-0.00193786632644333,-0.000956368503354103,-1.13183513899043e-05,-2.87035530193794e-05
-0.00193382513128669,-0.000954806861567906,-8.07518868435993e-06,-2.79414337480813e-05
-0.00193148862907223,-0.000952112731463476,-6.22055048291643e-06,-2.4479103359216e-05
-0.00193083297794062,-0.000946545657309631,-5.55885937313704e-06,-1.84416629989622e-05
-0.00193085681979995,-0.0009370208345068,-5.55956656385987e-06,-1.02604919121034e-05
-0.00192945015009941,-0.000927197988462328,-5.02823190145153e-06,-5.81361118652227e-07
-0.00192712556881461,-0.000919008309782047,-2.79287447204646e-06,8.81706430196322e-06
-0.00192335855504027,-0.000911557728741033,6.73326802899088e-07,1.55057030914168e-05
-0.00192172538767608,-0.000908303314942319,3.22296153097825e-06,1.85610813895983e-05
-0.00191952001568794,-0.000907206589413082,3.37665031783621e-06,1.95797037609034e-05
-0.00192152273187177,-0.000906360203406823,2.13830260808756e-06,2.0889798329032e-05
-0.0019222737504407,-0.000904452854660323,1.77459539283285e-06,2.30099281098463e-05
-0.00192017566681955,-0.000902295166390846,3.19793120568135e-06,2.43097178513523e-05
-0.00191743385299646,-0.00090419059420768,5.27638924721191e-06,2.30329302673979e-05
-0.00191645633676388,-0.000908052975419341,6.40263413037517e-06,1.92317134897618e-05
-0.00191816102970606,-0.000912964398441577,5.85288614460515e-06,1.45389896946691e-05
-0.00191874515525968,-0.000917267854050866,3.70073769192758e-06,1.01945284841433e-05
-0.00192106973654447,-0.000921273286418515,5.1707614069013e-07,5.72579584953584e-06
-0.00192602884328537,-0.000927758272156612,-2.35929618466881e-06,5.12843638304929e-08
-0.00192617189444136,-0.000934732016011001,-3.22787678349788e-06,-6.26228410865495e-06
-0.00192286979692398,-0.000937986429809715,-1.80424693531155e-06,-1.07970804708886e-05
-0.00192236911787803,-0.000939703043681564,-2.94843133626453e-07,-1.19214453679479e-05
-0.00192499172240446,-0.000939679201822233,-1.50820417022893e-06,-1.08414306783376e-05
-0.00192649375954233,-0.000938248690262359,-5.51567705148447e-06,-9.96567899948289e-06
-0.00193008195937168,-0.000937831457724062,-8.95876100390066e-06,-9.71698659504751e-06
-0.00193053495469898,-0.000936973150788137,-8.24453356154714e-06,-8.37650013352405e-06
-0.00192470562009249,-0.000933909471864073,-3.11674337232408e-06,-5.00277362332584e-06
-0.00191729080184047,-0.00093010669530074,3.14007667508611e-06,-7.86017067797973e-07
-0.00191466819731404,-0.00092550521644981,6.50742891603341e-06,3.10803131320146e-06
-0.00191574108098394,-0.000921106393403196,5.12075551784451e-06,7.45387188025606e-06
-0.00192012798310089,-0.000916862542442235,4.24330202981292e-07,1.3551389537789e-05
-0.00192371618293024,-0.000908279473082988,-3.78010664249401e-06,2.10683529612726e-05
-0.00192464601544416,-0.000899553352567753,-4.33649133122971e-06,2.86852006360434e-05
-0.00192129623420812,-0.000894403510952205,-1.93128057607245e-06,3.59558455710261e-05
-0.00192033063890521,-0.000887525134535142,-6.8740477634363e-07,4.27927929635296e-05
-0.00192264329926034,-0.00088086133485206,-3.36549412895299e-06,4.75653022775803e-05
-0.00192619573630069,-0.000882208399904275,-7.63435719104218e-06,4.76113935041125e-05
-0.00192710172695528,-0.00088872914843137,-8.78141874841525e-06,4.18676953990884e-05
-0.0019241810991872,-0.000897049957337973,-5.74827702275372e-06,3.16358917178584e-05
-0.00192059289935785,-0.000910818631101765,-2.40961848045331e-06,1.87941557398793e-05
-0.00191952001568794,-0.000925171430419173,-2.71611156521348e-06,4.95665643458525e-06
-0.00192363273642258,-0.000936091001992881,-6.7669141566452e-06,-7.43931988617391e-06
-0.00192992698728603,-0.000944757517859788,-1.22812966153851e-05,-1.5518800260015e-05
-0.00193380128942736,-0.000948512610704458,-1.74936413548328e-05,-1.88810160572032e-05
-0.00193594705676717,-0.000948953685102086,-2.10829107953462e-05,-2.07368924401232e-05
-0.00193731796367872,-0.000953042563977394,-2.13444302259825e-05,-2.45694104818898e-05
-0.00193415891731733,-0.000959086475317864,-1.77296051641544e-05,-3.04197073189712e-05
-0.00192580234562173,-0.000963699875098459,-1.21781008279324e-05,-3.57370974297204e-05
-0.00192084323888083,-0.000966274795906233,-7.0644891529128e-06,-3.9030605805005e-05
-0.00191808950412807,-0.00096821790744173,-2.77142063019481e-06,-4.10294605941547e-05
-0.00191248666718523,-0.000969994125961907,1.05308386972958e-06,-4.2666036446636e-05
-0.00190896999293387,-0.000969755707368595,3.36404434887654e-06,-4.37353223696089e-05
-0.00190938722547217,-0.00096946960505662,3.5154481214144e-06,-4.38282106223798e-05
-0.00190904151851186,-0.000968742428347017,4.17682465573007e-06,-4.31509607846341e-05
-0.00190284263508574,-0.000966596661007205,9.04867611290919e-06,-4.17691681594718e-05
-0.00189344894250923,-0.0009632349588415,1.75098204065193e-05,-3.89695319372049e-05
-0.00188680898468548,-0.00095738178237568,2.47959669632726e-05,-3.41263496528797e-05
-0.00188339959880111,-0.000950932559426579,2.83292326875437e-05,-2.78345320047835e-05
-0.00187925111527748,-0.000944185313235838,3.05786450581112e-05,-2.16616957816417e-05
-0.00187637817122806,-0.000938522871644668,3.38468303800647e-05,-1.66963342522179e-05
-0.00187523376198016,-0.000932109411484564,3.52840190435431e-05,-1.22272098532424e-05
-0.00187894117110617,-0.000926685388486706,3.02822570004942e-05,-5.8197088690269e-06
-0.0018903375798665,-0.000915753895983332,1.92919052937553e-05,4.64378487306066e-06
-0.00190089952355024,-0.000898647361913166,7.92026159131136e-06,1.82433149815002e-05
-0.00190844547202858,-0.000887751632198789,5.24485524993414e-07,3.06751724835616e-05
-0.00191178333233496,-0.000880909018570722,-3.41608493685935e-06,3.75959846994802e-05
-0.00191481124847002,-0.000876700930398758,-6.23638471888713e-06,3.84114058966725e-05
-0.0019162417600299,-0.000878977827964892,-8.24071628588984e-06,3.61235500001955e-05
-0.00191595565771792,-0.000882530265005247,-8.41045887993127e-06,3.364138008128e-05
-0.00191499006241501,-0.000882697158020565,-7.11464011157698e-06,3.12566660642321e-05
-0.00191400062525276,-0.000884139590510105,-6.08485966270239e-06,2.77957293887723e-05
-0.00191307079273884,-0.000890624576248203,-6.20477853330165e-06,2.29560373382099e-05
-0.00191370260201112,-0.000894534641178527,-6.90813709539111e-06,1.76847073676188e-05
-0.00191588413213993,-0.000897252613142288,-7.85411787077937e-06,1.28878587827405e-05
-0.00191650402048254,-0.000902068668727199,-9.96638521799771e-06,8.59605798221498e-06
-0.00192060482028751,-0.000905716473204879,-1.41474756526583e-05,4.31223980051783e-06
-0.00192655336419066,-0.0009092808311749,-1.9458439369863e-05,-2.24502836410965e-07
-0.00193014156402001,-0.000912833268215255,-2.32795977142974e-05,-4.64299777185701e-06
-0.00192996275007503,-0.000916409547114941,-2.34593678733829e-05,-8.28525452372125e-06
-0.00192657720604999,-0.000918233449353781,-2.01266522212275e-05,-1.10238269379883e-05
-0.0019218922806914,-0.000920534188779246,-1.52759771787794e-05,-1.33731577876908e-05
-0.00191754114136345,-0.000921762044534805,-1.0731405928122e-05,-1.52704285776887e-05
-0.00191347610434747,-0.000920391137623259,-6.79519883745354e-06,-1.51615368383249e-05
-0.00190873157434056,-0.000917756612167156,-2.86495487442076e-06,-1.13777553280961e-05
-0.00190620433725144,-0.000910258347407481,1.14714265958719e-06,-4.50748302672113e-06
-0.00190200817000915,-0.000901281887369268,4.55255789446985e-06,2.69128218459411e-06
-0.0018994928538497,-0.000897061878267639,6.99356498098176e-06,8.13102911386767e-06
-0.00189741861208788,-0.000893342548211965,9.29999545098682e-06,1.21270166765459e-05
-0.00189433109130449,-0.000888431125189729,1.28526772242914e-05,1.56973895131703e-05
-0.0018888832264473,-0.000885796599733627,1.80047757791611e-05,1.8188181179851e-05
-0.00188347112437911,-0.000887560897324139,2.31403931785529e-05,1.77676326656845e-05
-0.00188196908724124,-0.000890779548333856,2.54759901706463e-05,1.39341547231687e-05
-0.00188435327317436,-0.000895822101582414,2.33135599540615e-05,8.56481868465357e-06
-0.001888465993909,-0.000900232845558694,1.78988288726563e-05,4.46974786177676e-06
-0.00189530860753707,-0.000902450138476499,1.27138998607952e-05,3.37533745301428e-06
-0.00189783584462618,-0.000900280529277356,1.0305609618273e-05,4.97746867421132e-06
-0.00189697753769025,-0.000898373180530857,9.92249080176542e-06,7.242678274192e-06
-0.00189893257015542,-0.000898325496812194,8.88854631197613e-06,7.79699212103074e-06
-0.00190300952810106,-0.000901293808298934,6.02892602923254e-06,5.7939957754596e-06
-0.00190500032335522,-0.000904214436067011,2.57305982924629e-06,2.60391055013178e-06
-0.00190855276039557,-0.000907540375443719,-4.30620488583033e-07,3.28969540948271e-07
-0.00191264163927088,-0.000908112580067669,-3.91423816531422e-06,-2.93703944842175e-07
-0.00191818487156539,-0.000909698063713197,-8.89318956746376e-06,-2.29491325076009e-07
-0.00192253601089335,-0.00091015105904049,-1.41391532027294e-05,-7.33738020284163e-07
-0.00192632686652701,-0.000912177617083646,-1.76151909660875e-05,-2.20226573168428e-06
-0.00192933094080275,-0.000915336663445035,-1.95492699966293e-05,-4.23692715451457e-06
-0.0019317389685952,-0.000918114240057125,-2.18533480348018e-05,-6.10347747602769e-06
-0.00193347942432639,-0.000919520909757668,-2.44388515977966e-05,-7.01204860059528e-06
-0.00193389665686468,-0.000919580514405996,-2.44888193514821e-05,-6.577577546458e-06
-0.00193178665231387,-0.000919890458577302,-2.03521668227956e-05,-5.32785903644258e-06
-0.00192396652245322,-0.000919568593476331,-1.42163185566252e-05,-4.43519979074066e-06
-0.00191953193661761,-0.000920581872497909,-9.48753504832941e-06,-4.7283913758659e-06
-0.0019180775831984,-0.000922823007275045,-6.98262370610256e-06,-6.14459089374711e-06
-0.00191694509488017,-0.000925970132706769,-5.24760954101985e-06,-8.1001958151103e-06
-0.00191377412758911,-0.00092877155117819,-3.30133139764229e-06,-9.88294655967624e-06
-0.00191267740205988,-0.000929462965098796,-1.09237108795404e-06,-1.03769551608304e-05
-0.00191031705798608,-0.000928533132584878,1.8964785813952e-06,-7.83507501007358e-06
-0.00190545331868251,-0.000921809728253468,6.29911659840084e-06,-7.47498544633413e-07
-0.00190123330958088,-0.000912153775224315,1.12669325010062e-05,1.04905311222513e-05
-0.00189750205859554,-0.000899958664176384,1.49414053590178e-05,2.27837619452445e-05
-0.00189638149120697,-0.000891816669214765,1.64229623658357e-05,3.17580588642354e-05
-0.00189776431904819,-0.000890827232052519,1.58629032839763e-05,3.46499390777435e-05
-0.00189992200731766,-0.00089316373426698,1.31919206143787e-05,3.20359391567515e-05
-0.00190498840242555,-0.000899517589778756,8.76746712973217e-06,2.6615480124866e-05
-0.00190954219755782,-0.00090677743594512,4.89530059873346e-06,2.05271791423688e-05
-0.00190993558823678,-0.000913620049573186,4.12587436910188e-06,1.43421086004704e-05
-0.00190945875105016,-0.000920283849256268,5.6091928022924e-06,8.31663343000496e-06
-0.00190955411848748,-0.000925445611801482,5.51531362400412e-06,3.22643567926043e-06
-0.00191309463459817,-0.000931191499900311,1.87949516938442e-06,-7.86956222375193e-07
-0.00191955577847694,-0.000935721453173247,-3.11717747535237e-06,-5.15454378968989e-06
-0.00192239295973736,-0.000941932257529036,-6.55723961262822e-06,-1.13464647653989e-05
-0.00192453872707717,-0.000950419959450958,-8.13700826600414e-06,-1.87310321425626e-05
-0.00192565929446574,-0.000957489070742671,-8.78110069340004e-06,-2.51512552813688e-05
-0.00192555200609875,-0.000961947498437613,-8.24317631371309e-06,-2.95332681299171e-05
-0.00192393075966422,-0.000965535698266965,-6.15314241647631e-06,-3.27335402145303e-05
-0.00192122470863013,-0.000968957005080998,-3.74995593808541e-06,-3.5713991492435e-05
-0.00192080747609183,-0.000972175656090716,-2.28430277098429e-06,-3.8175426462355e-05
-0.00191975843428126,-0.000973379669986943,-7.74490196991814e-07,-3.94303308405751e-05
-0.00191627752281889,-0.000973010121167309,2.58563485406768e-06,-3.93469682389292e-05
-0.00191150915095265,-0.0009723544700357,7.68907815520801e-06,-3.76185873525533e-05
-0.00190703880232804,-0.000968563614402033,1.3105231773687e-05,-3.32987803229647e-05
-0.00190192472350149,-0.000960135517128439,1.83232227821659e-05,-2.64445587767266e-05
-0.00189728748186156,-0.00095468765227125,2.30304305444522e-05,-1.95666479611544e-05
-0.00189598810052801,-0.00095142131754287,2.49295430969892e-05,-1.58110742719726e-05
-0.00190016042591097,-0.000950026568771992,2.12053312654849e-05,-1.55678844969379e-05
-0.00190924417431618,-0.000950527247817948,1.25505663409717e-05,-1.60651681205404e-05
-0.00191820871342472,-0.000950288829224636,3.47855659841499e-06,-1.44999062961045e-05
-0.0019241810991872,-0.0009449959364531,-2.0736177377168e-06,-1.03933781852422e-05
-0.00192714941067394,-0.000939190443705943,-3.92727890142115e-06,-4.57130447580078e-06
-0.00192689907115096,-0.00093154912779028,-4.23407850724822e-06,2.61230296200268e-06
-0.00192728054090026,-0.000924730356021545,-4.64844975348848e-06,1.080770919725e-05
-0.00192979585705971,-0.000915479714601023,-5.44122989907032e-06,1.84669814286555e-05
-0.0019294859128884,-0.000909173542807909,-5.87956580378563e-06,2.39120717641096e-05
-0.00192836534549983,-0.000907480770795391,-4.87960036000002e-06,2.76216142058755e-05
-0.00192714941067394,-0.000901377254806593,-2.48412177398486e-06,3.20230670510119e-05
-0.00192557584795808,-0.000894391590022539,-9.1436578887908e-07,3.85378389675771e-05
-0.00192716133160361,-0.000887107901996845,-2.64845061157883e-06,4.57619771424418e-05
-0.00193165552208755,-0.000882387213849259,-7.13553999987916e-06,5.08940789910726e-05
-0.00193660270789878,-0.000880730204625738,-1.11043649506403e-05,5.19482140974546e-05
-0.00193785440551367,-0.000882768683598559,-1.26420479548684e-05,4.81707679982274e-05
-0.00193811666596631,-0.000892520004065037,-1.30856381591157e-05,3.96598337232453e-05
-0.00193920147056588,-0.000904154831418683,-1.39711488632626e-05,2.77953994805327e-05
-0.00194005977750181,-0.000915122086711054,-1.41113339106234e-05,1.53105284390803e-05
-0.00193675767998443,-0.000925266797856498,-1.13641599465106e-05,4.72164944203457e-06
-0.00193121444768992,-0.00093367105327076,-5.88133829335453e-06,-3.02920915943995e-06
-0.00192525398285711,-0.000938069876317374,2.71982537606075e-07,-7.85024973580742e-06
-0.00192021142960855,-0.00093808179724704,5.76176813887917e-06,-9.64572491006309e-06
-0.00191485893218869,-0.000938046034458043,1.02992685263175e-05,-9.46483779320408e-06
-0.00191260587648188,-0.000939273890213602,1.29806045009515e-05,-1.0037517688706e-05
-0.00191252242997422,-0.00094047790410983,1.25913838853555e-05,-1.2734160901842e-05
-0.00191581260656194,-0.00094153886685007,9.70198081708122e-06,-1.4779020841102e-05
-0.001918840522697,-0.000939810332048555,6.37616580403007e-06,-1.24950028355142e-05
-0.00192167770395742,-0.000934040602090394,3.06187328927509e-06,-7.18793260282417e-06
-0.00192694675486963,-0.000929808672059099,-2.38613712510318e-06,-4.22090668949807e-06
-0.00193618547536048,-0.000930905397588336,-1.11174971983346e-05,-5.41030596622382e-06
-0.00194443475868909,-0.000931489523141952,-1.99323250806077e-05,-6.30738948399981e-06
-0.00194727193994951,-0.000927269514040322,-2.36741942584795e-05,-3.11516935825081e-06
-0.00194504272610204,-0.00092300182122003,-2.1162656807747e-05,1.7393569892722e-06
-0.00194143068441335,-0.000918197686564784,-1.69553457959275e-05,4.55738208775191e-06
-0.00193882000081658,-0.00091570621226467,-1.60512298099118e-05,7.25074295111099e-06
-0.0019408584797894,-0.000909292752104565,-1.78717082155817e-05,1.36587500670617e-05
-0.00193997633099415,-0.000901150757142946,-1.71823000899883e-05,2.0747764465205e-05
-0.00193381321035702,-0.000900709682745318,-1.08209760729702e-05,2.01356968253675e-05
-0.00192334663411061,-0.00091186767291234,-1.58186498244243e-06,9.31258645542022e-06
-0.00191614639259257,-0.000924992616474188,5.48151957574272e-06,-4.40783522732659e-06
-0.00191258203462255,-0.000932955797490823,8.95259259502591e-06,-1.33484173393995e-05
-0.00191029321612675,-0.000937223490311115,1.13380135808158e-05,-1.79301546552895e-05
-0.00190634738840743,-0.000941109713382108,1.42439659022498e-05,-2.26531702890292e-05
-0.00190408241177096,-0.000946831759621606,1.58324761513462e-05,-2.82027921734237e-05
-0.00190659772793041,-0.000950110015279651,1.38795002209779e-05,-3.21018663418501e-05
-0.00191103231376602,-0.00095036035480263,9.45178671381403e-06,-3.41516428665338e-05
-0.00191278469042687,-0.000952911433751072,5.84574326901923e-06,-3.60068211400787e-05
-0.0019143344112834,-0.000953531322093685,4.62061910474378e-06,-3.66700289888691e-05
-0.00191512119264133,-0.000948500689774793,4.35602393845171e-06,-3.33582787059162e-05
-0.00191535961123464,-0.000941062029663445,3.43915064501731e-06,-2.67667849005862e-05
-0.00191456090894704,-0.000936543997320175,2.70788417253648e-06,-2.1153662816035e-05
-0.00191379796944845,-0.000932896192842495,4.39535066231091e-06,-1.85133511012397e-05
-0.0019097210115028,-0.000929093416279162,8.84878051888641e-06,-1.62372034648268e-05
-0.00190345060249869,-0.000924146230467929,1.33428671932853e-05,-1.14533211618863e-05
-0.00190203201186848,-0.000918006951690134,1.48137040590541e-05,-4.49478091040884e-06
-0.00190442811873127,-0.000909316593963897,1.33920349866174e-05,2.98749504094109e-06
-0.00190465461639491,-0.000900256687418025,1.20430220516321e-05,1.02436201528213e-05
-0.00190408241177096,-0.000895237976028798,1.21936170678843e-05,1.62626157153371e-05
-0.00190569173727582,-0.000892722659869353,1.10372694372626e-05,1.92705009863225e-05
-0.00191191446256128,-0.000889957004186928,4.94645117147079e-06,1.95114668048998e-05
-0.00192060482028751,-0.000888907962376354,-4.81588279166139e-06,2.04124828648373e-05
-0.0019283415036405,-0.000886106543904933,-1.20654623436712e-05,2.46771344950704e-05
-0.00192915212685776,-0.00087876325123091,-1.22899845852223e-05,3.04701964916273e-05
-0.00192325126667328,-0.000874865107230252,-7.56616973106491e-06,3.32902860513631e-05
-0.00191950809475828,-0.000878012232661976,-3.52651405833034e-06,3.06140594697632e-05
-0.00191997301101524,-0.000885796599733627,-2.89036529934018e-06,2.33941060834727e-05
-0.00191984188078891,-0.000893044524970324,-4.03109684786511e-06,1.44822038357023e-05
-0.00192121278770046,-0.000899934822317053,-4.9470793022394e-06,7.33244396404348e-06
-0.00192254793182301,-0.000903439575638746,-5.68059460042473e-06,4.85082556897933e-06
-0.00192282211320532,-0.00089997058510605,-6.29865241005375e-06,7.14324661457719e-06
-0.00192221414579237,-0.000896406227136029,-5.30790246274699e-06,1.07628639198816e-05
-0.00191892396920466,-0.00089507108301348,-2.06311202813685e-06,1.18841018172339e-05
-0.00191612255073324,-0.00089670425037767,8.87158091171884e-07,9.94302309360516e-06
-0.00191761266694144,-0.000900471264152006,3.2532985104279e-07,7.0575064242621e-06
-0.00192075979237317,-0.000901389175736259,-3.2503509102242e-06,4.89719160812809e-06
-0.00192326318760295,-0.00090228324546118,-6.05497485892155e-06,3.81432694948104e-06
-0.00192501556426379,-0.000903594547724399,-5.96702197673478e-06,4.09164352247885e-06
-0.00192304861086897,-0.000900530868800334,-4.77078011332178e-06,5.76544706457678e-06
-0.00192298900622064,-0.000898921543295475,-4.62083273374959e-06,7.40255608896107e-06
-0.00192375194571924,-0.000899922901387388,-4.52959513118182e-06,7.03455346438104e-06
-0.00192186843883207,-0.000902724319858808,-2.31470884236758e-06,4.43669566389886e-06
-0.00191812526691707,-0.000905680710415882,1.43451579546187e-06,1.05409380487569e-06
-0.00191597949957725,-0.000908803993988275,3.92443946441079e-06,-2.01409994498265e-06
-0.00191597949957725,-0.000911831910123343,4.32372660343479e-06,-4.34926270271539e-06
-0.0019158245274916,-0.000912892872863583,4.82513743119183e-06,-5.15709380982252e-06
-0.00191421520198674,-0.00091140275665538,7.07841054392172e-06,-4.20679755767377e-06
-0.00191079389517271,-0.000911462361303709,9.81992897798089e-06,-3.71868252758125e-06
-0.00191057931843873,-0.000915205533218714,1.11525350275188e-05,-6.70187236916917e-06
-0.00191088926261003,-0.000921082551543865,1.13528029839044e-05,-1.28037649547086e-05
-0.00190995943009612,-0.000926637704768044,1.18760336082941e-05,-1.81690611254388e-05
-0.0019089580720042,-0.000929093416279162,1.28657548150856e-05,-2.02843852738528e-05
-0.00190998327195545,-0.00093021398366773,1.33900522120011e-05,-2.06052172751556e-05
-0.00190932762082384,-0.000930798109221346,1.34384136167888e-05,-2.11373772014511e-05
-0.00190829049994293,-0.000930321272034721,1.40401029807079e-05,-2.08982167318639e-05
-0.00190802823949028,-0.000928509290725546,1.56357824097999e-05,-1.79713983972702e-05
-0.00190598976051746,-0.000924193914186592,1.75540140472349e-05,-1.33117455938151e-05
-0.00190432083036428,-0.000920736844583562,1.88935986606288e-05,-9.81828801955541e-06
-0.00190429698850495,-0.000919699723702653,1.90102813566092e-05,-8.38383372460708e-06
-0.00190647851863375,-0.000918877179555725,1.75972766963982e-05,-7.39748629409223e-06
-0.00190840970923958,-0.000919139440008368,1.52033937128243e-05,-6.02440911373235e-06
-0.00191074621145405,-0.00091772084937816,1.29625539033589e-05,-5.45657602952062e-06
-0.00191253435090389,-0.000918293054002109,1.07061778244646e-05,-6.05591963041179e-06
-0.00191781532274576,-0.000919544751617,6.26053116426325e-06,-5.12359939921239e-06
-0.00192571889911407,-0.000913059765878902,-1.84678228986236e-06,8.06014243751736e-07
-0.00193445694055897,-0.00090198522221954,-1.17862403958053e-05,1.17709609289295e-05
-0.00194383871220581,-0.000891220622731484,-2.03219409941505e-05,2.35183471589724e-05
-0.00194996607005394,-0.000884139590510105,-2.65637666857687e-05,3.10773637369841e-05
-0.00195496093958383,-0.000883412413800503,-3.1721264573221e-05,3.27980996421279e-05
-0.0019576073859696,-0.000884282641666093,-3.58853691681303e-05,3.06088432933351e-05
-0.001960694906753,-0.000889527850718966,-3.79794566666907e-05,2.6741536378206e-05
-0.00196201812994588,-0.000896680408518339,-3.88755328150881e-05,2.12959588806681e-05
-0.00196220886482053,-0.00090255742684349,-4.1223344363107e-05,1.35998122915699e-05
-0.00196620237625851,-0.000912416035676958,-4.51565965222642e-05,4.8648532813309e-06
-0.00196928989704191,-0.000920891816669215,-4.7202765989699e-05,-2.1956972308381e-06
-0.00196602356231353,-0.000923895890944951,-4.51163526345096e-05,-6.30583035151016e-06
-0.00196070682768266,-0.000927639062859956,-4.10739826084101e-05,-8.59747462895645e-06
-0.00195782196270358,-0.000929296072083477,-3.78415955082177e-05,-1.04128275243274e-05
-0.00195466291634219,-0.000930678899924689,-3.40744581985242e-05,-1.17802388360844e-05
-0.00194484007029772,-0.000932538564952526,-2.62513693040872e-05,-1.25940056976287e-05
-0.00193209659648517,-0.000934076364879391,-1.38508318113619e-05,-1.34920875247767e-05
-0.00191905509943098,-0.000933790262567416,1.19346425951734e-07,-1.44965710172315e-05
-0.00190492879777722,-0.000935041960182307,1.26950878821988e-05,-1.44243470303054e-05
-0.00189485561220977,-0.000934743936940666,2.23233067623782e-05,-1.30391173839233e-05
-0.00188989650546888,-0.000933158453295139,2.75225278853981e-05,-1.22627985775754e-05
-0.00188909780318128,-0.000934219416035379,2.74255318662981e-05,-1.34420497288441e-05
-0.00189213764024601,-0.000936567839179506,2.39104467584711e-05,-1.46388687202225e-05
-0.00189553510520071,-0.000935328062494282,2.05676981819731e-05,-1.27964154683016e-05
-0.00189648877957396,-0.000929713304621774,1.90320150603701e-05,-7.86508467233589e-06
-0.00189646493771463,-0.000924336965342579,1.84716049601385e-05,-2.56363330816795e-06
-0.00189572584007536,-0.000921356732926174,1.88021646235586e-05,1.50030872230237e-06
-0.00189389001690686,-0.000918555314454753,2.14498838625409e-05,4.95611785441514e-06
-0.00188790571021472,-0.000914514119298107,2.5788466244344e-05,7.75265150472468e-06
-0.00188598644053855,-0.000914955193695735,2.76834183304088e-05,7.78693135058804e-06
-0.00189018260778085,-0.000919830853928974,2.40309863742727e-05,3.86054911524643e-06
-0.00189654838422229,-0.000925457532731147,1.7262142290393e-05,-1.57246646116251e-06
-0.00190011274219231,-0.000927209909391994,1.28723847908912e-05,-4.27084286817869e-06
-0.00190016042591097,-0.000925529058309141,1.30209516320247e-05,-2.38650286338467e-06
-0.00189905177945207,-0.000922334249158755,1.47142627893187e-05,2.17500049708093e-06
-0.00189878951899943,-0.000917840058674816,1.42873329909878e-05,6.27869111430985e-06
-0.00190154325375219,-0.000914228016986133,1.16348383895402e-05,8.62144544501648e-06
-0.00190358173272501,-0.000914025361181817,9.2385329709496e-06,1.01528103052107e-05
-0.00190553676519017,-0.000912654454270271,8.48191886888489e-06,1.19913113195407e-05
-0.00190498840242555,-0.00090996032416584,8.29800026133848e-06,1.37184295949664e-05
-0.00190643083491509,-0.000909221226526572,6.98740478125186e-06,1.43104408683855e-05
-0.00190954219755782,-0.00091023450554815,4.07516328110002e-06,1.41798827221843e-05
-0.0019143701740724,-0.000909698063713197,1.11959298677643e-07,1.47368190931788e-05
-0.00191857826224436,-0.000907695347529372,-4.32097408312423e-06,1.56049777354369e-05
-0.00192281019227565,-0.000909817273009853,-8.50583087680508e-06,1.4185325521087e-05
-0.00192577850376239,-0.000915277058796707,-1.09913550323037e-05,9.39227188331841e-06
-0.00192601692235571,-0.000918734128399737,-1.04101041783023e-05,4.28947678155191e-06
-0.0019230366899393,-0.000920999105036205,-7.21445961498198e-06,2.91009406043648e-06
-0.00191901933664199,-0.000918877179555725,-3.53539949993455e-06,5.26115616695365e-06
-0.00191712390882515,-0.000916028077365641,-6.75871309585507e-07,7.60540845958214e-06
-0.00191512119264133,-0.000915336663445035,2.26272417601654e-06,7.18699058660535e-06
-0.00191112768120335,-0.000919854695788306,6.28213217923942e-06,4.43252235573926e-06
-0.00190715801162469,-0.000922989900290364,9.98764343904436e-06,7.49057672961391e-07
-0.00190764676974098,-0.000925135667630176,1.08155520816684e-05,-3.26811009032124e-06
-0.00191085349982104,-0.000930428560401711,8.47235145730999e-06,-7.00151194098559e-06
-0.0019135357089958,-0.000933039243998482,5.51860142273142e-06,-9.53326258860105e-06
-0.00191469203917337,-0.000933551843974104,4.41281092416744e-06,-1.10844634948813e-05
-0.00191499006241501,-0.000934875067166988,5.53137008600116e-06,-1.29757988065631e-05
-0.00191274892763787,-0.000938212927473362,8.39151971720265e-06,-1.55151940627307e-05
-0.00190796863484196,-0.00094058519247682,1.2903245627144e-05,-1.76444631167638e-05
-0.00190247308626611,-0.000940644797125148,1.81786823601774e-05,-1.90971007350315e-05
-0.00190129291422921,-0.000942194517981679,2.1486563829515e-05,-2.07818894099408e-05
-0.00190248500719577,-0.000944519099266475,2.01966487031788e-05,-2.24045861077383e-05
-0.00190737258835868,-0.000944519099266475,1.45041597183425e-05,-2.22520004651347e-05
-0.00191565763447628,-0.000941169318030436,7.02655010653246e-06,-2.05964512192878e-05
-0.0019245625689365,-0.000941610392428064,-1.32803780692961e-07,-2.06910874906624e-05
-0.00193002235472336,-0.000946009215474678,-6.83804266228615e-06,-2.42765577372554e-05
-0.00193645965674279,-0.00094932323392172,-1.34534022005936e-05,-2.81778233135252e-05
-0.00194370758197949,-0.000947868880502515,-1.90081092922896e-05,-2.78121963396097e-05
-0.00194554340514799,-0.000942707117957301,-2.13899124685293e-05,-2.24593722952921e-05
-0.00194289695876223,-0.000936114843852213,-1.90920208450271e-05,-1.44994571349168e-05
-0.00193725835903039,-0.00092474227695121,-1.26526278502747e-05,-5.06474452263068e-06
-0.00192856800130415,-0.000913822705377501,-4.66308833803923e-06,6.03593896747631e-06
-0.00192279827134599,-0.000903594547724399,1.56102783541165e-06,1.66522864525903e-05
-0.00192122470863013,-0.000897812896836573,3.58830737740802e-06,2.24552727982863e-05
-0.00192251216903401,-0.000897502952665266,5.16766013872907e-07,2.18945031667138e-05
-0.00193145286628323,-0.000901508385032915,-7.40302748472807e-06,1.83913818924971e-05
-0.00194330227037086,-0.000903010422170783,-1.89961431668012e-05,1.63587580522755e-05
-0.0019549370977245,-0.000902652794280815,-3.18299558797159e-05,1.70539008984407e-05
-0.00196495067864362,-0.000900375896714681,-4.25383021652945e-05,1.94796897162504e-05
-0.00197166216204537,-0.000895607524848433,-4.84993185757281e-05,2.31618221765324e-05
-0.00197224628759898,-0.000891470962254462,-4.93677368056578e-05,2.79105056340043e-05
-0.00196803819942702,-0.000888049655440429,-4.67596971413293e-05,3.19572816031647e-05
-0.0019637109019584,-0.000886273436920252,-4.271558075797e-05,3.25682405544371e-05
-0.00196058761838601,-0.000890398078584556,-3.87522553459187e-05,2.86919727161779e-05
-0.00195591461395708,-0.00089757447824326,-3.57904657354355e-05,2.193467821407e-05
-0.00195368540010961,-0.000904643589534973,-3.39772874606004e-05,1.49138341376426e-05
-0.00195117008395017,-0.000909555012557209,-3.23873854669422e-05,9.35244156093545e-06
-0.00194892894917303,-0.000913727337940177,-2.94999005311568e-05,5.55418796459211e-06
-0.00194221746577129,-0.000916671807567585,-2.42557868948216e-05,2.88526705685941e-06
-0.00193302642899909,-0.000918996388852381,-1.63975921687742e-05,6.21328796388483e-07
-0.00192297708529097,-0.000920021588803624,-5.87215654179828e-06,-1.30967298843593e-06
-0.0019089580720042,-0.000922453458455411,7.3219789394259e-06,-2.47495078765082e-06
-0.00189311515647859,-0.000922691877048723,2.21071105653396e-05,-2.94614546738602e-06
-0.00187881004087985,-0.000922548825892736,3.55410558676891e-05,-3.62634826987913e-06
-0.00187008392036461,-0.000924980695544523,4.40880494386724e-05,-5.08664727806212e-06
-0.00186734210654152,-0.000926816518713028,4.63313006207996e-05,-6.62697433514089e-06
-0.00186811696696979,-0.000926423128034063,4.41906813703908e-05,-7.28627911511813e-06
-0.00187122832961251,-0.000927174146602997,4.09253537582189e-05,-7.39965506599634e-06
-0.00187306415278102,-0.000928485448866215,3.8109108659633e-05,-8.0937580282689e-06
-0.00187580596660411,-0.000929117258138493,3.52679702778036e-05,-9.26241154640499e-06
-0.00187810670602958,-0.000928592737233206,3.22216650754608e-05,-9.19455555224941e-06
-0.00187891732924684,-0.000927162225673331,3.01595788927414e-05,-6.65727713672783e-06
-0.00187959682223778,-0.000922584588681733,2.95296066173858e-05,-2.44990193848736e-06
-0.00188081275706367,-0.000918531472595422,2.83397589110017e-05,1.66844890224921e-06
-0.00188325654764512,-0.000914728696032089,2.43627110766195e-05,4.67673549782118e-06
-0.00188916932875927,-0.000914657170454095,1.83018291443699e-05,6.09386832071977e-06
-0.00189423572386716,-0.000915420109952695,1.28156494486581e-05,5.17937684089839e-06
-0.00189875375621043,-0.000917279774980532,8.92438172530802e-06,2.08983831340226e-06
-0.00189998161196599,-0.000920593793427574,5.85853433634205e-06,-5.51208060080167e-07
-0.00190109025842489,-0.000920617635286905,4.31783191950268e-06,4.05212309792292e-07
-0.00190074455146459,-0.000915741975053666,6.4527207867382e-06,4.16574875834007e-06
-0.00189404498899251,-0.000913834626307167,1.12731946253422e-05,5.3637697590623e-06
-0.00189114820308377,-0.000921022946895536,1.34251368709871e-05,-3.01200383432466e-07
-0.00189652454236296,-0.000931048448744324,9.38414718597855e-06,-1.08113173253594e-05
-0.00190302144903072,-0.000939488466947583,2.62699880804295e-06,-2.00567800821766e-05
-0.00190497648149589,-0.000944030341150185,-7.11476478733878e-07,-2.45780421058661e-05
-0.00190500032335522,-0.000946104582912003,1.27881944651022e-07,-2.59361619443766e-05
-0.00190489303498823,-0.000946748313113946,6.46842030923753e-07,-2.67791206686209e-05
-0.00190622817911078,-0.00094594961082635,-1.34150769979381e-06,-2.73832072409451e-05
-0.00190728914185102,-0.000946235713138325,-2.60373767056381e-06,-2.68640169728566e-05
-0.00190567981634616,-0.000945282038765075,-7.14488376146141e-08,-2.51967513320251e-05
-0.00190138828166653,-0.000940704401773477,4.07900281001791e-06,-2.23896767642997e-05
-0.00189994584917699,-0.000936436708953184,5.20164928160517e-06,-1.7699585408953e-05
-0.00190382015131832,-0.000930631216206027,1.8359796619221e-06,-1.17227794709497e-05
-0.00190960180220615,-0.000926613862908713,-3.65293370083656e-06,-7.59093927700042e-06
-0.00191513311357099,-0.000925028379263185,-8.74659859801817e-06,-7.46681338293755e-06
-0.00191872131340035,-0.000927197988462328,-1.30254494566598e-05,-8.75728171427318e-06
-0.00192390691780489,-0.000924885328107198,-1.72926670524115e-05,-6.57213340810322e-06
-0.00192918788964676,-0.00091733937962886,-2.18672492702452e-05,2.51111029769064e-07
-0.00193246614530481,-0.000909411961401222,-2.55867469760481e-05,8.14885912611771e-06
-0.00193278801040578,-0.000903558784935402,-2.60816009751008e-05,1.39320728046664e-05
-0.00193010580123101,-0.000899565273497419,-2.1883413474361e-05,1.81214316986433e-05
-0.00192297708529097,-0.00089430814351488,-1.47079591759324e-05,2.23858675991246e-05
-0.00191609870887391,-0.000890743785544859,-8.56278094116872e-06,2.62528984505243e-05
-0.0019142986484944,-0.000889313273984985,-6.10363711927846e-06,2.80035687236674e-05
-0.00191677820186485,-0.000889205985617994,-6.95759251538514e-06,2.7081715871305e-05
-0.00191820871342472,-0.000892651134291359,-9.57896182187436e-06,2.39755880831029e-05
-0.0019211293411928,-0.000897479110805935,-1.25347438555691e-05,1.90959025923582e-05
-0.00192346584340726,-0.000903081947748777,-1.33395288710082e-05,1.34754032167839e-05
-0.00191926967616497,-0.000906634384789132,-9.01161799455198e-06,9.46690538951795e-06
-0.00190924417431618,-0.000907230431272413,-8.43721090958088e-08,8.78956680955741e-06
-0.00190243732347711,-0.000906491333633145,7.92683708114316e-06,1.02753654645191e-05
-0.00190099489098757,-0.000905013138354608,9.74291701370108e-06,1.10764227056478e-05
-0.00190463077453558,-0.00090582376157187,5.94106969349379e-06,9.85612606871895e-06
-0.00190920841152718,-0.000909125859089247,1.19843820585763e-06,7.53954967581975e-06
-0.0019124628253259,-0.000911176258991734,-1.72852585599455e-06,5.25781047028396e-06
-0.00191512119264133,-0.000913167054245892,-3.61377767094166e-06,2.94597402824653e-06
-0.00191628944374856,-0.000916183049451294,-5.46746305145089e-06,-8.2559445226116e-10
-0.00191761266694144,-0.000920748765513227,-6.93381982165722e-06,-3.7547732853367e-06
-0.00191943656918028,-0.00092455154207656,-7.90730489009288e-06,-7.81578261200933e-06
-0.00192011606217122,-0.000927674825648953,-8.80324853923965e-06,-1.10269621296673e-05
-0.0019196749877736,-0.000929069574419831,-8.84148217232293e-06,-1.2062908101369e-05
-0.0019176961134491,-0.00092819934655424,-6.6152663997952e-06,-1.0699374610699e-05
-0.00191406022990109,-0.000926125104792422,-2.82882068020908e-06,-8.32652387243177e-06
-0.00191127073235933,-0.000923800523507626,-3.08858800039819e-08,-6.44239033449751e-06
-0.00190955411848748,-0.000923252160743008,9.5775544789383e-07,-5.06210639646841e-06
-0.00190877925805922,-0.000922131593354439,1.96062032057353e-06,-3.45892468953113e-06
-0.00190713416976536,-0.00092060571435724,4.07547665862038e-06,-1.84007887620583e-06
-0.00190447580244993,-0.000920128877170615,5.82630400305509e-06,-1.02837611810444e-06
-0.00190432083036428,-0.000919926221366299,5.77189348454936e-06,-8.85347373040923e-07
-0.00190558444890883,-0.000921011025965871,4.77847967299286e-06,-4.50708634025315e-07
-0.00190615665353278,-0.000919902379506968,4.47614449016812e-06,5.07832624172621e-07
-0.00190358173272501,-0.000918638760962412,5.43171752941826e-06,1.45577009655092e-06
-0.00190185319792349,-0.000918757970259068,7.96739330222273e-06,2.52259111870432e-06
-0.00189749013766588,-0.000917983109830803,1.24925396002932e-05,4.46729184922429e-06
-0.00189142238446607,-0.00091456180301677,1.73617363079897e-05,6.97248625546921e-06
-0.00189032565893684,-0.000913846547236833,1.85946789175382e-05,8.34961902216193e-06
-0.0018949509796471,-0.000916361863396279,1.40744137356727e-05,7.42971196859186e-06
-0.00190210353744647,-0.000918579156314084,6.67740143860836e-06,4.74384993856717e-06
-0.00190691959303138,-0.000922334249158755,1.10734561086992e-06,1.57805853865837e-06
-0.00190929185803484,-0.000925529058309141,-1.27276750720635e-06,-1.05939454970498e-06
-0.00191117536492201,-0.000927376802407312,-2.44446447573244e-06,-2.33730402191285e-06
-0.00191097270911769,-0.000927472169844637,-3.73732776029675e-06,-1.77800805163049e-06
-0.00191150915095265,-0.000925755555972788,-4.27959324157697e-06,-3.9146102614658e-08
-0.00191147338816365,-0.000924611146724888,-3.02561598938575e-06,1.55686498013368e-06
-0.00190682422559406,-0.00092444425370957,-2.4534931816267e-07,2.66397369222803e-06
-0.00190429698850495,-0.000923645551421973,2.88788523594003e-06,3.905244317854e-06
-0.00190248500719577,-0.000922107751495108,4.6527817330346e-06,4.83763515545052e-06
-0.00190373670481066,-0.00092482572345887,3.21785182938429e-06,3.48688488769291e-06
-0.00190858852318457,-0.000930082853441408,-1.56730402420088e-06,-9.80656301195515e-07
-0.00191342842062881,-0.00093413596952772,-7.24736117448483e-06,-6.20884283224671e-06
-0.00191816102970606,-0.000937748011216403,-1.12578997116317e-05,-8.59350285232452e-06
-0.00192114126212247,-0.000937068518225462,-1.37019445341712e-05,-6.83453358332932e-06
-0.00192170154581675,-0.000931859071961586,-1.58029625659197e-05,-2.69458922766378e-06
-0.00192296516436131,-0.000928175504694909,-1.65735325762331e-05,1.23669289128816e-06
-0.00192163002023876,-0.000927531774492966,-1.38648849151874e-05,3.58975679855105e-06
-0.00191513311357099,-0.000925779397832119,-8.53596766974459e-06,4.39364397063155e-06
-0.00191073429052438,-0.000925707872254125,-4.39234582066574e-06,4.24984968131957e-06
-0.00191031705798608,-0.000927126462884334,-3.17911571585639e-06,3.60443411394987e-06
-0.0019105554765794,-0.000928831155826518,-2.4986443913596e-06,2.56426399086776e-06
-0.00190695535582038,-0.000929105337208827,-5.82006367019e-08,1.3154702830642e-06
-0.00190426122571595,-0.000929653699973446,2.65296303063902e-06,4.34564286013046e-07
-0.00190554868611984,-0.000931310709196967,3.00294907126948e-06,2.56114225693083e-07
-0.00190678846280506,-0.000930774267362014,1.58856398395081e-06,7.47544445809464e-08
-0.00190582286750214,-0.000931406076634292,1.54101267660089e-06,-1.2684463363151e-06
-0.00190459501174659,-0.000934219416035379,4.51317722131964e-06,-4.00576563288516e-06
-0.00189943324920137,-0.000938534792574334,9.49355237677646e-06,-7.39326454312387e-06
-0.00189430724944516,-0.00094085937385913,1.48435631423165e-05,-1.0873356626004e-05
-0.00189055215660048,-0.000943660792330551,1.93215151337615e-05,-1.42550023830671e-05
-0.00188802491951137,-0.000946736392184281,2.13891592911357e-05,-1.68707655298742e-05
-0.00189085017984213,-0.000947701987487196,1.97034823866019e-05,-1.78541032154361e-05
-0.00189632188655864,-0.00094586616431869,1.48397088939297e-05,-1.72520982605181e-05
-0.00190161477933018,-0.000944149550446841,9.29733281092102e-06,-1.5456524230377e-05
-0.00190542947682318,-0.000940215643657186,5.55760577962819e-06,-1.17215126765515e-05
-0.00190767061160032,-0.000933158453295139,4.92128804016644e-06,-5.32850898365343e-06
-0.00190515529544087,-0.000926089342003425,7.65140146921992e-06,1.60968154408422e-06
-0.00189948093292003,-0.000921571309660155,1.25854230363834e-05,5.23627198772713e-06
-0.00189660798887062,-0.000921630914308483,1.67944854493787e-05,4.96021922374939e-06
-0.00189657222608162,-0.00092147594222283,1.7631828924632e-05,4.70539087898781e-06
-0.00189883720271809,-0.000918376500509769,1.5544434190317e-05,7.29607558531943e-06
-0.00190069686774593,-0.000914979035555067,1.30330341504151e-05,1.00399844315103e-05
-0.00190533410938585,-0.00091570621226467,1.03046668491097e-05,8.44531831131456e-06
-0.0019116641230383,-0.00092204814684678,4.21923203710304e-06,2.32558843766828e-06
-0.0019222379876517,-0.000928556974444209,-6.98381151753275e-06,-4.86721141480352e-06
-0.00193636428930547,-0.000933551843974104,-1.98406104586542e-05,-1.12744893389092e-05
-0.00194569837723365,-0.000939798411118889,-2.87348447221766e-05,-1.75250742779749e-05
-0.00194859516314239,-0.000945472773639725,-3.16670298640714e-05,-2.29635289292175e-05
-0.00194787990736246,-0.000945508536428722,-3.06802113941868e-05,-2.48310207019105e-05
-0.00194575798188197,-0.000942385252856329,-2.74730992451849e-05,-2.19330738610746e-05
-0.00193964254496351,-0.000936567839179506,-2.16908210043621e-05,-1.6210376487168e-05
-0.00193175088952487,-0.000929546411606455,-1.39151728635294e-05,-9.83235844124544e-06
-0.00192662488976865,-0.000922095830565442,-7.30452459391978e-06,-3.28658239627534e-06
-0.00192352544805559,-0.00091551547739002,-4.47677276444884e-06,2.82958202613723e-06
-0.00192266714111967,-0.00091140275665538,-4.38026274411498e-06,6.85886211232016e-06
-0.00192337047596994,-0.000909066254440919,-3.78623680501939e-06,8.50146113869804e-06
-0.00192067634586551,-0.00090677743594512,-7.40571758849688e-07,1.01509230079316e-05
-0.0019146443554547,-0.000902426296617168,4.56924127815114e-06,1.41026083659471e-05
-0.00190844547202858,-0.000896644645729342,1.07700898545687e-05,1.97210437648947e-05
-0.00190451156523893,-0.000891304069239144,1.5390145985403e-05,2.45987113268814e-05
-0.00190461885360592,-0.000888061576370095,1.54696115252911e-05,2.72326393162423e-05
-0.00190879117898888,-0.000887477450816479,1.06703669005269e-05,2.75024730823665e-05
-0.00191354762992547,-0.000889229827477326,5.33225910093411e-06,2.59739402576569e-05
-0.00191504966706334,-0.000890302711147231,4.8752636564048e-06,2.40335285943359e-05
-0.00191028129519709,-0.000890684180896531,9.74591780179416e-06,2.33971055682848e-05
-0.00190343868156902,-0.000890624576248203,1.48846115810549e-05,2.40053500805845e-05
-0.00190291416066373,-0.00088998084604626,1.56463178526387e-05,2.33638086969037e-05
-0.00190713416976536,-0.000894904189998161,1.23598276006565e-05,1.93122474879565e-05
-0.00191023361147842,-0.000900936180408965,8.38064665350109e-06,1.26691551526885e-05
-0.00191154491374164,-0.000907397324287732,5.65876858528199e-06,6.02411913184563e-06
-0.00191409599269009,-0.000913047844949236,3.59864839344753e-06,8.16293928530967e-07
-0.00191727888091081,-0.000916898305231232,8.0970591289022e-07,-3.24300912388192e-06
-0.00192054521563919,-0.000920319612045265,-3.72427632843583e-06,-6.85818934127573e-06
-0.00192590963398872,-0.000924515779287563,-1.04240822884612e-05,-1.06951211013777e-05
-0.00193512451262024,-0.000929760988340437,-1.84260296810957e-05,-1.54344376246614e-05
-0.00194067966584442,-0.000934100206738723,-2.52868765731844e-05,-2.06528433776794e-05
-0.00194331419130052,-0.000938618239081993,-2.85753474372149e-05,-2.40003709631864e-05
-0.00194228899134928,-0.000937771853075734,-2.7954993993405e-05,-2.29998089968727e-05
-0.00193887960546491,-0.000932169016132892,-2.53365428968695e-05,-1.77900189209641e-05
-0.00193640005209446,-0.00092626815594841,-2.33595781851483e-05,-1.11672362609278e-05
-0.0019371153078744,-0.000922095830565442,-2.39597690133009e-05,-5.91226665093534e-06
-0.00193853389850461,-0.000917780454026488,-2.72714132385825e-05,-2.69920856189501e-06
-0.00194116842396071,-0.000916791016864241,-3.07802465840165e-05,-3.8190986679095e-07
-0.00194209825647463,-0.000914895589047407,-3.03577966564531e-05,2.35307310009665e-06
-0.00193347942432639,-0.000911271626429059,-2.38390159318871e-05,5.52912666519938e-06
-0.00192174922953541,-0.00090985303579885,-1.37691110616262e-05,7.71093739055245e-06
-0.00191427480663507,-0.000911068970624743,-5.47011993297082e-06,7.46202427880735e-06
-0.00191028129519709,-0.000914061123970814,-1.94205060083002e-06,4.89019218499009e-06
-0.00190733682556968,-0.000917840058674816,-1.1295819996078e-06,1.17608200026788e-06
-0.00190426122571595,-0.000922966058431033,1.81604397221575e-06,-2.99975701693209e-06
-0.00189558278891938,-0.000928270872132234,1.00311784404837e-05,-7.26617273421181e-06
-0.00188264858023218,-0.000931298788267302,2.22042152404127e-05,-1.02829572966558e-05
-0.00187106143659719,-0.000932669695178848,3.32780213954703e-05,-1.09067210023254e-05
-0.00186456452992943,-0.000933396871888451,3.80563131105687e-05,-1.07163690148009e-05
-0.00186712752980754,-0.000935661848524919,3.54666204307223e-05,-1.24746288510946e-05
-0.00187311183649968,-0.000939393099510258,2.97993952986936e-05,-1.52659716519497e-05
-0.00187392245971694,-0.000939011629760958,2.69404842717771e-05,-1.46535680851361e-05
-0.0018710256738082,-0.000934529360206685,2.88554567815779e-05,-9.56343782526188e-06
-0.00186848651578942,-0.00093184715103192,3.22250594968981e-05,-5.16092258054373e-06
-0.00186716329259654,-0.000931894834750583,3.25542283531631e-05,-5.41804671264412e-06
-0.00186967860875598,-0.000933051164928148,2.85854356405978e-05,-6.32770604659912e-06
-0.00187592517590077,-0.000930142458089737,2.2069876256485e-05,-1.64086735347938e-06
-0.00188375722669108,-0.000921976621268786,1.43407339569437e-05,6.94929706407102e-06
-0.00189234029605033,-0.000917315537769528,4.89321309711603e-06,1.17403871504692e-05
-0.00190265190021109,-0.000918936784204053,-6.23429010977984e-06,1.07555162530871e-05
-0.00191178333233496,-0.000919985826014627,-1.59306651251729e-05,1.08264575873759e-05
-0.00191543113681264,-0.000914502198368442,-1.94321480982677e-05,1.72099130500517e-05
-0.00191031705798608,-0.000905299240666583,-1.49327054194839e-05,2.613100411374e-05
-0.00190099489098757,-0.000900614315307993,-6.31515704410363e-06,3.09796160520053e-05
-0.00189454566803847,-0.00090293889659279,-3.02695385078273e-07,3.10903045657191e-05
-0.00189452182617914,-0.000903487259357408,-3.4142898394491e-07,3.00747593250393e-05
-0.00189763318882186,-0.000903534943076071,-3.60762470812226e-06,2.90100445780975e-05
-0.00189806234228983,-0.000909006649792591,-4.49322281566324e-06,2.62566884724034e-05
-0.00189325820763458,-0.000913059765878902,-7.08863376110319e-07,2.20763171925985e-05
-0.00188832294275301,-0.000915944630857982,4.69376348363874e-06,1.85595730124751e-05
-0.00188653480330317,-0.000920105035311284,7.04615874201798e-06,1.55479272917849e-05
-0.00188725005908311,-0.000925231035067501,4.71800395446139e-06,1.07522029053189e-05
-0.00189185153793404,-0.000932359751007542,-2.26947631091903e-07,3.93928159545603e-06
-0.00189780008183718,-0.000938916262323633,-4.97780375835731e-06,-2.63911022374736e-06
-0.00190132867701821,-0.000944781359719119,-8.59533350758631e-06,-8.41723869956866e-06
-0.00190279495136708,-0.000952827987243413,-1.19452829583192e-05,-1.56829181285892e-05
-0.00190740835114767,-0.000962328968186913,-1.58455923571501e-05,-2.53550906036253e-05
-0.00191240322067757,-0.000971067009631813,-1.95126081860292e-05,-3.43101556692832e-05
-0.00191216480208426,-0.000976049958232043,-2.06294288211363e-05,-3.87217811849565e-05
-0.00190776597903764,-0.000975549279186087,-1.70910020344608e-05,-3.84822828384551e-05
-0.00190153133282252,-0.000973892269962565,-9.12244879476529e-06,-3.66621619727144e-05
-0.00189157735655173,-0.000972521363051019,2.14424477915317e-07,-3.54292658907238e-05
-0.00188459169176767,-0.000970745144530841,6.87040347423628e-06,-3.39261702465245e-05
-0.00188317310113747,-0.000967311916787143,8.45853773645634e-06,-3.00479207652894e-05
-0.00188620101727253,-0.000959920940394457,5.51734357379143e-06,-2.3353382328662e-05
-0.00189129125423975,-0.000952303466338126,8.37366685471314e-07,-1.57214212120495e-05
-0.00189398538434418,-0.000945615824795712,-2.21245099595417e-06,-9.20083381706768e-06
-0.00189348470529823,-0.000940251406446183,-1.46878692181826e-06,-3.80933810780534e-06
-0.00188900243574395,-0.000933790262567416,2.81857835689556e-06,1.70966150993717e-06
-0.00188403140807339,-0.000928485448866215,8.30886203480151e-06,7.16693556642288e-06
-0.00188030015708805,-0.000925350244364157,1.24898452779318e-05,1.04672454644375e-05
-0.00187762986884295,-0.000924098546749267,1.42946255091779e-05,1.04594522806432e-05
-0.00187864314786453,-0.000925779397832119,1.36168607877277e-05,8.73942227286952e-06
-0.00188328038950446,-0.000927174146602997,9.89210274100018e-06,7.43794565854121e-06
-0.00189118396587276,-0.000927472169844637,2.39895623345993e-06,6.42897052846392e-06
-0.00189940940734204,-0.000929403360450468,-7.8800396396354e-06,4.07961268451398e-06
-0.00191140186258566,-0.000933015402139151,-1.78600481548561e-05,-3.15409924929757e-07
-0.00191890012734533,-0.000939285811143268,-2.4461528305485e-05,-6.22200964385527e-06
-0.0019192219924463,-0.000945472773639725,-2.64814128641702e-05,-1.2684150021998e-05
-0.00191717159254382,-0.000948679503719777,-2.41687091044417e-05,-1.76827390991581e-05
-0.00191320192296516,-0.000949657019952358,-1.82811864289037e-05,-1.80548337647159e-05
-0.00190451156523893,-0.000943982657431522,-1.05796277204781e-05,-1.25826213023416e-05
-0.00189794313299317,-0.000935483034579935,-4.06617841312007e-06,-4.50061851508416e-06
-0.00189532052846673,-0.000927758272156612,-8.71414011244742e-07,1.53909909552581e-06
-0.00189476024477245,-0.000925290639715829,-1.16884151369519e-08,4.53185627177509e-06
-0.00189393770062552,-0.000923717076999967,1.33955813116403e-06,6.68026440436387e-06
-0.00189030181707751,-0.000920260007396937,4.33581007200836e-06,8.60264227249143e-06
-0.00188742887302809,-0.000919032151641378,7.52373708303634e-06,8.4642173687238e-06
-0.00188688051026347,-0.00092272763983772,9.39202649245157e-06,6.22198400556333e-06
-0.00188539039405527,-0.000924003179311942,1.01725581292459e-05,5.05121084120598e-06
-0.00188492547779831,-0.000919532830687334,1.05848281546014e-05,6.95386296279295e-06
-0.00188609372890554,-0.0009168744633719,1.04254101418148e-05,9.88329215935578e-06
-0.00188725005908311,-0.00091714864475421,9.47838417032866e-06,1.1254979025868e-05
-0.0018877030544104,-0.000914645249524429,8.58119478016133e-06,1.18717959146287e-05
-0.00188872825436164,-0.00091197496127933,8.46238685988385e-06,1.39269990878918e-05
-0.0018888117008693,-0.000909340435823228,8.35937761316391e-06,1.696827133717e-05
-0.00189044486823349,-0.000907802635896363,7.14462114416148e-06,1.86851036150204e-05
-0.00189251910999531,-0.000907313877780072,5.2393928517904e-06,1.88501325373448e-05
-0.00189396154248485,-0.000905084663932601,4.00858153120315e-06,1.98565022655426e-05
-0.00189497482150643,-0.000902128273375527,3.60609613742295e-06,2.33347602866953e-05
-0.00189565431449737,-0.000898063236359551,2.89444417798244e-06,2.80716230340082e-05
-0.00189738284929889,-0.000893795543539258,1.47177065628644e-06,3.14392953129708e-05
-0.00189925443525639,-0.000892746501728684,3.24539765371242e-07,3.16545617884685e-05
-0.00189944517013104,-0.000896656566659007,1.45090769626915e-07,2.86876793332046e-05
-0.00189931403990472,-0.000901675278048234,3.06034284641528e-07,2.40182216563681e-05
-0.00190037500264496,-0.000904893929057951,1.75960335443648e-07,1.94828578445849e-05
-0.00190042268636362,-0.000909102017229916,4.91307814316202e-07,1.56786146237135e-05
-0.00189808618414916,-0.000913381630979873,2.52271620465901e-06,1.17444566991014e-05
-0.00189505826801409,-0.000917816216815485,6.22218176499753e-06,7.04735762598275e-06
-0.00189239990069866,-0.000922894532853039,9.73409150550888e-06,2.15474764684446e-06
-0.0018915177519034,-0.000926840360572359,1.06062619859027e-05,-2.51595089650581e-06
-0.00189476024477245,-0.000932765062616173,7.48722181565501e-06,-7.73397423291161e-06
-0.00190141212352586,-0.000939106997198283,1.25233879567446e-06,-1.39415707040861e-05
-0.00190932762082384,-0.000944554862055472,-5.32811325024246e-06,-1.98751912920608e-05
-0.00191330921133215,-0.000948906001383424,-9.72235850550454e-06,-2.41966119779893e-05
-0.00191526424379732,-0.00095218425704147,-1.18386020709574e-05,-2.74201228648147e-05
-0.00191854249945536,-0.000955903587097143,-1.35322398183925e-05,-3.04120009706834e-05
-0.00192101013189615,-0.000956559238228752,-1.56464462269173e-05,-3.19468622156157e-05
-0.00192148696908277,-0.000954437312748272,-1.649946465917e-05,-3.00436054887521e-05
-0.00191953193661761,-0.000950944480356245,-1.41640859477972e-05,-2.52724496699817e-05
-0.00191638481118588,-0.000944924410875106,-9.51037201713831e-06,-2.03304556992543e-05
-0.00191255819276322,-0.000941205080819433,-5.66953412747932e-06,-1.63366494889206e-05
-0.00191098463004736,-0.000936770494983822,-4.55575520095031e-06,-1.19179883557995e-05
-0.00191272508577854,-0.000931239183618974,-5.0996850994904e-06,-6.32118101540013e-06
-0.0019135714717848,-0.00092588668619911,-5.17659891508521e-06,-1.1032330422152e-06
-0.00191253435090389,-0.000922846849134376,-4.13686070419259e-06,2.03989269398886e-06
-0.00191103231376602,-0.000921356732926174,-2.66702241599336e-06,3.12048530153147e-06
-0.00191019784868943,-0.000921952779409455,-9.60832210490686e-07,2.75104281889216e-06
-0.0019086123650439,-0.000923466737476989,1.67573398368243e-06,1.17198602894272e-06
-0.00190453540709826,-0.000925350244364157,5.20965035784296e-06,-7.60749925529183e-07
-0.00190223466767279,-0.00092580323969145,7.73463634237744e-06,-1.7876154501454e-06
-0.00190470230011358,-0.000927054937306341,6.73784615538557e-06,-2.66046369503658e-06
-0.00190950643476882,-0.000930476244120374,1.76171595601264e-06,-6.10079868612049e-06
-0.00191550266239063,-0.000936353262445525,-4.27086942523396e-06,-1.2648045664087e-05
-0.001918840522697,-0.000942838248183623,-6.75862012511881e-06,-1.87866755139653e-05
-0.00191559802982795,-0.000945091303890425,-3.19763460925735e-06,-2.1567339234569e-05
-0.00190843355109892,-0.000946652945676621,4.17571679907034e-06,-2.30345580109014e-05
-0.00190305721181972,-0.000950551089677279,9.88347592126513e-06,-2.67718101961114e-05
-0.00190286647694507,-0.000954175052295628,1.02619072158575e-05,-3.1352238125878e-05
-0.0019063235465481,-0.000954163131365963,7.1855975746699e-06,-3.13264882184078e-05
-0.00190813552785728,-0.000948429164196799,5.9584911108717e-06,-2.49105492470308e-05
-0.0019044161978016,-0.000939571913455243,9.24758891347349e-06,-1.67450774000257e-05
-0.00189992200731766,-0.000933218057943467,1.42350478669707e-05,-1.15882752456812e-05
-0.00189819347251615,-0.000931644495227605,1.66286093549216e-05,-8.56909311874616e-06
-0.00189809810507882,-0.000926160867581419,1.62127003776827e-05,-3.89856661645251e-06
-0.00189827691902381,-0.000918865258626059,1.63879058699307e-05,3.41585637588452e-06
-0.00189648877957396,-0.000909483486979215,1.8533979555338e-05,1.15323468477682e-05
-0.00189559470984904,-0.000902736240788474,1.94537413561675e-05,1.96374012825299e-05
-0.00189905177945207,-0.000893831306328255,1.5611549415029e-05,2.83092267227833e-05
-0.00190737258835868,-0.000884401850962749,7.93862364433524e-06,3.65389440113167e-05
-0.00191478740661069,-0.000879323534925195,5.15832619634436e-07,4.18458783323297e-05
-0.001918912048275,-0.000877869181505989,-4.19346192908597e-06,4.39417604991954e-05
-0.00192130815513779,-0.000876247935071464,-6.4395290983665e-06,4.52785868737606e-05
-0.00192210685742538,-0.000874304823535968,-6.34711735395996e-06,4.67016370858084e-05
-0.00191764842973044,-0.000875139288612562,-3.16266739047204e-06,4.53076280600485e-05
-0.00191226016952158,-0.000883269362644515,1.94225133225393e-06,3.88055011932857e-05
-0.00191026937426742,-0.000891637855269781,5.13229218358644e-06,2.99410418699218e-05
-0.00191091310446936,-0.000896680408518339,3.8512310307634e-06,2.36086301157208e-05
-0.0019135714717848,-0.000900793129252978,-3.15450519225365e-07,2.04430880495373e-05
-0.0019192577552353,-0.00090601449644652,-4.82286632139686e-06,1.6370873671626e-05
-0.00192514669449012,-0.000912630612410939,-1.06912937115324e-05,8.66745641171996e-06
-0.00193388473593502,-0.00092147594222283,-2.07825429775608e-05,-3.91616431913069e-07
-0.00194669973532556,-0.000928747709318859,-3.3707575058418e-05,-6.78548123723896e-06
-0.00195589077209775,-0.000931906755680248,-4.26957864579936e-05,-9.13583698130034e-06
-0.00195517551631782,-0.000930690820854355,-4.21581399309688e-05,-8.46662745294221e-06
-0.00194560300979632,-0.00092771058843795,-3.34958255417431e-05,-5.88687823311488e-06
-0.00193415891731733,-0.000926089342003425,-2.26118461777276e-05,-2.67905269389163e-06
-0.00192474138288149,-0.000924730356021545,-1.31634825936243e-05,-1.16455835819506e-06
-0.0019169331739505,-0.000926518495471388,-4.84249230275816e-06,-2.98382367800021e-06
-0.00190794479298263,-0.000930643137135693,2.20545695900895e-06,-7.03670570207837e-06
-0.00190489303498823,-0.000935435350861272,4.69951726469346e-06,-1.09713584398597e-05
-0.00191100847190669,-0.000939738806470561,-4.32413280643876e-08,-1.40938988448179e-05
-0.00191894781106399,-0.000942361410996998,-9.33493776951247e-06,-1.71162233001396e-05
-0.00192520629913844,-0.000945258196905744,-1.66009729325043e-05,-2.00774908597528e-05
-0.00192533742936477,-0.000949823912967677,-1.76544252903962e-05,-2.27868962211641e-05
-0.00192365657828191,-0.00095392471277265,-1.38013165775365e-05,-2.62956636126249e-05
-0.00191612255073324,-0.000957989749788627,-8.66076659289571e-06,-3.09498050166211e-05
-0.00190998327195545,-0.000961911735648616,-4.05620536442005e-06,-3.36789059230581e-05
-0.00190787326740463,-0.000960314331073423,-1.44782733751026e-07,-3.10543979566929e-05
-0.00190442811873127,-0.00095517641038754,2.42083372643444e-06,-2.53130511013789e-05
-0.00190253269091443,-0.000953137931414719,3.03895010116431e-06,-2.30720540368125e-05
-0.00190165054211918,-0.000957536754461333,3.45154989057267e-06,-2.65238482632587e-05
-0.0018983842073908,-0.000961673317055304,6.94970032722559e-06,-3.00043246638946e-05
-0.00189108859843544,-0.000960815010119379,1.43635504239807e-05,-2.78900518611662e-05
-0.00188161145935127,-0.000955379066191856,2.23675275508743e-05,-2.21134273793052e-05
-0.00187649738052472,-0.000951516684980195,2.68172084921389e-05,-1.80589488581591e-05
-0.00187736760839031,-0.000950884875707917,2.67232088331142e-05,-1.59863111322074e-05
-0.00188013326407273,-0.000947594699120205,2.3968381201769e-05,-1.1439368938325e-05
-0.0018819810081709,-0.00093884473674564,2.02457596419277e-05,-2.81948755725043e-06
-0.00188602220332755,-0.000929844434848096,1.59227225666976e-05,6.50945957773234e-06
-0.00189223300768334,-0.000924658830443551,1.15656468477107e-05,1.38635772925741e-05
-0.00189317476112692,-0.000917995030760469,8.78935868997331e-06,2.05655288409053e-05
-0.001892280691402,-0.000910818631101765,8.80881992851668e-06,2.84371167299596e-05
-0.00189124357052109,-0.00090293889659279,1.0897121219933e-05,3.64594840975059e-05
-0.00188883554272863,-0.000898563915405507,1.30329840655473e-05,4.26254888966431e-05
-0.0018873215846611,-0.000894951873716824,1.3966471444231e-05,4.66744623448988e-05
-0.00188673745910749,-0.000892233901753062,1.42135527905206e-05,4.9472913278079e-05
-0.00188629638470986,-0.000890862994841516,1.48662206523815e-05,5.15341506270939e-05
-0.00188565265450791,-0.000890195422780241,1.57465567704832e-05,5.32983479371718e-05
-0.00188552152428159,-0.000888943725165351,1.54700533734226e-05,5.5161735792471e-05
-0.00188703548234913,-0.00088807349729976,1.3720696520373e-05,5.62132346647902e-05
-0.00188826333810469,-0.000889647060015622,1.25380697773339e-05,5.44788163138634e-05
-0.00188746463581709,-0.000896775775955664,1.38721491317936e-05,4.91582266849567e-05
-0.00188539039405527,-0.000904929691846948,1.60278399737096e-05,4.10759848016874e-05
-0.00188570033822658,-0.000914907509977073,1.4477298767301e-05,3.06353808647793e-05
-0.00189431917037482,-0.000928652341881534,7.0660925191322e-06,1.76339465583505e-05
-0.00190536987217485,-0.000943112429565932,-3.16663121588451e-06,3.8069796471907e-06
-0.00191222440673258,-0.000954592284833925,-1.15698701906529e-05,-7.26153328660741e-06
-0.0019181491087764,-0.000960969982205032,-1.67952887400668e-05,-1.44714917021516e-05
-0.00192289363878331,-0.000967872200481427,-2.05224684122909e-05,-2.10379095342662e-05
-0.00192589771305905,-0.000978052674415867,-2.3823235382851e-05,-2.97889871258008e-05
-0.00192781698273522,-0.000985240995004236,-2.64181212010767e-05,-3.86790897423911e-05
-0.00193192970346985,-0.000991034566821728,-2.88551781543477e-05,-4.37171770941831e-05
-0.00193481456844893,-0.00099203592491364,-3.23233555671941e-05,-4.48978041679389e-05
-0.00193851005664528,-0.000992763101623243,-3.57867512225373e-05,-4.60063283652592e-05
-0.00193960678217451,-0.000996136724718614,-3.60172358724635e-05,-4.89937570039948e-05
-0.00193469535915228,-0.000997841417660798,-3.16545410958673e-05,-5.17072195356286e-05
-0.00192902099663144,-0.000997650682786148,-2.50751611639439e-05,-5.16542545482367e-05
-0.00192331087132161,-0.000995051920119042,-1.89037939536632e-05,-4.91915308282251e-05
-0.00191661130884953,-0.000991141855188719,-1.2731757464211e-05,-4.56624575151092e-05
-0.0019101740068301,-0.000985181390355908,-5.08482255914105e-06,-4.05183759589622e-05
-0.00190190088164216,-0.000976455269840674,3.15468785718621e-06,-3.23500373875768e-05
-0.00189559470984904,-0.000965464172688971,9.7180253495592e-06,-2.18911947984699e-05
-0.00189141046353641,-0.000955677089433496,1.43866280482093e-05,-1.20019085085567e-05
-0.0018873215846611,-0.000946450289872306,1.89806057583672e-05,-4.49237721919837e-06
-0.00188217174304555,-0.000939619597173905,2.40285519322689e-05,1.58216432631463e-06
-0.00187952529665979,-0.000933849867215745,2.7447675840084e-05,7.65478382530551e-06
-0.0018804908919627,-0.000927591379141294,2.68110726982123e-05,1.25532230006054e-05
-0.00188592683589022,-0.000925839002480447,2.15887870683498e-05,1.3066873450763e-05
-0.00189441453781215,-0.000930500085979705,1.32209149127016e-05,7.83531115230812e-06
-0.00190424930478628,-0.000938308294910687,4.37252486919356e-06,-4.31730420789745e-07
-0.00191082965796171,-0.000944101866728179,-2.08846770050226e-06,-7.41865465266031e-06
-0.0019136072345738,-0.000946795996832609,-5.16272889616184e-06,-1.11883506978751e-05
-0.00191679012279452,-0.000947117861933581,-7.03512057625031e-06,-1.27671651260131e-05
-0.0019204021644832,-0.000948143061884824,-1.06551680020198e-05,-1.34714961019157e-05
-0.00192520629913844,-0.000945901927107687,-1.54894336754507e-05,-1.32182492033452e-05
-0.00192780506180555,-0.000943028983058273,-1.7234173034622e-05,-1.14098766471622e-05
-0.00192327510853261,-0.000939214285565274,-1.25687197260766e-05,-7.87505743705354e-06
-0.00191383373223744,-0.000932884271912829,-3.03197500449495e-06,-2.56741761566502e-06
-0.0019052149000892,-0.000924909169966529,6.46815744899069e-06,4.16412835103828e-06
-0.00189976703523201,-0.0009176374028705,1.17592625658245e-05,1.04520289133618e-05
-0.00190017234684064,-0.00091418033326747,1.13914140334026e-05,1.36712033975248e-05
-0.00190656196514141,-0.000913155133316227,6.3040006895508e-06,1.33756260351849e-05
-0.00191305887180918,-0.000913333947261211,-6.60562348615615e-07,1.2196798539211e-05
-0.00191797029483141,-0.000912606770551608,-5.61004139958419e-06,1.26980094853049e-05
-0.00191943656918028,-0.000909638459064869,-5.87309750463573e-06,1.45980982719273e-05
-0.00191527616472698,-0.000906992012679101,-1.94799875597576e-06,1.64430344674927e-05
-0.00191012632311143,-0.000904238277926342,3.33876989152194e-06,1.856853349851e-05
-0.00190634738840743,-0.000900530868800334,7.47780846703326e-06,2.2141937291565e-05
-0.00190454732802792,-0.000895547920200105,9.65044868502752e-06,2.5952327060762e-05
-0.00190420162106762,-0.000894033962132571,1.01435231301513e-05,2.68796651838725e-05
-0.00190489303498823,-0.000897038036408307,9.60894150974006e-06,2.41511152801985e-05
-0.00190569173727582,-0.000899362617693103,8.99094566161554e-06,2.09750483178541e-05
-0.00190560829076816,-0.000899171882818453,9.25028557285048e-06,2.06546595899228e-05
-0.0019048691931289,-0.000897133403845632,1.06179577173253e-05,2.24356760046828e-05
-0.00190263997928142,-0.000897300296860951,1.22762077146572e-05,2.26825774061148e-05
-0.00190274726764841,-0.000899851375809394,1.28887310667972e-05,1.94485950169438e-05
-0.00190411817455996,-0.000904607826745977,1.1440008505922e-05,1.43772105280326e-05
-0.00190794479298263,-0.000909137780018912,7.82325369602149e-06,1.02256231562046e-05
-0.00191329729040249,-0.000911712700826687,2.86909046564702e-06,7.96141437614098e-06
-0.00191793453204242,-0.000912392193817627,-2.32547010136172e-06,6.84591032632483e-06
-0.00192331087132161,-0.000913095528667899,-7.21119417722579e-06,6.29509989254852e-06
-0.00192873489431947,-0.00091369157515118,-1.17801325999658e-05,6.48220815588314e-06
-0.00193147670814256,-0.000912797505426258,-1.58702362804234e-05,7.30774985340067e-06
-0.00193549406143988,-0.000912654454270271,-1.89753729479159e-05,7.89615771954001e-06
-0.00193755638227203,-0.000913357789120542,-2.07858102117222e-05,7.60413055003356e-06
-0.001937878247373,-0.000914442593720114,-2.14077828791736e-05,6.90926031872261e-06
-0.0019374967776237,-0.000915503556460354,-2.10488091654342e-05,6.67881194281076e-06
-0.00193674575905477,-0.000915873105279988,-2.00083203519667e-05,6.8774299096728e-06
-0.00193532716842456,-0.000916409547114941,-1.86585572913682e-05,6.63934053737834e-06
-0.00193315755922541,-0.000918364579580103,-1.64448434571013e-05,5.5248977975682e-06
-0.00192815076876585,-0.000920915658528546,-1.13253781348841e-05,4.14229351194807e-06
-0.00191850673666637,-0.000922310407299424,-2.0175854262775e-06,3.48265528373944e-06
-0.00190769445345965,-0.000921618993378817,9.00491793498835e-06,4.00308005502422e-06
-0.00190006505847365,-0.000922453458455411,1.6982546417296e-05,5.23266931687626e-06
-0.001896095388895,-0.00092300182122003,2.03620481216012e-05,5.78011519763796e-06
-0.00189386617504753,-0.000924515779287563,2.25985623539741e-05,3.8335029744343e-06
-0.00189023029149951,-0.000931882913820917,2.66144982140803e-05,-1.67554460712529e-06
-0.00188719045443478,-0.000942015704036695,2.93710857048022e-05,-1.01655940140507e-05
-0.00189179193328571,-0.000951540526839526,2.47294236819128e-05,-1.99387604591473e-05
-0.00190540563496385,-0.000962722358865878,1.09511270063791e-05,-2.95483930003317e-05
-0.0019234539224776,-0.000972902832800319,-7.13726252603913e-06,-3.82273947831992e-05
-0.00193935644265154,-0.000980389176630329,-2.29118738279456e-05,-4.5143553216485e-05
-0.00194888126545437,-0.00098531252058223,-3.22472079459478e-05,-4.90452435041523e-05
-0.00194900047475102,-0.000986611901915783,-3.34361002107612e-05,-4.91010811652369e-05
-0.00194233667506794,-0.00098493105083293,-2.64416642111374e-05,-4.5889869782565e-05
-0.00193094026630761,-0.000980651437082972,-1.39729536898947e-05,-4.12742351438971e-05
-0.0019169331739505,-0.000977504311651248,-1.31014345576276e-06,-3.70429225543235e-05
-0.00190801631856062,-0.000975573121045418,6.92811556255751e-06,-3.33137827493846e-05
-0.00190685998838305,-0.000971520004959107,9.52137325861763e-06,-2.83572920991941e-05
-0.00190830242087259,-0.000963819084395116,7.87916374300248e-06,-2.06973864231642e-05
-0.00191109191841435,-0.000956463870791427,3.84670545721615e-06,-1.1422613841981e-05
-0.00191607486701458,-0.000949931201334667,-1.01232153982939e-06,-3.23928661371313e-06
-0.00192089092259949,-0.000943148192354929,-5.16725898478552e-06,3.1417116505395e-06
-0.00192335855504027,-0.000937533434482421,-7.32233051123255e-06,9.91258946328058e-06
-0.00192096244817748,-0.000931096132462986,-6.70766023076641e-06,1.82211177272575e-05
-0.00191798221576108,-0.00092417007232726,-3.19732293650008e-06,2.53102319284104e-05
-0.00191348802527714,-0.000922131593354439,2.09508562879099e-06,2.8222567175378e-05
-0.00190881502084822,-0.000921940858479789,6.62171279618423e-06,2.91356465761232e-05
-0.00190578710471315,-0.000918436105158097,8.29350501579273e-06,3.33953809657578e-05
-0.00190596591865813,-0.000911474282233374,7.86681496804314e-06,4.19412108379239e-05
-0.00190829049994293,-0.000903916412825371,8.1570113736928e-06,4.91746809276922e-05
-0.00190364133737334,-0.000903356129131086,1.06138657578373e-05,4.98147355242246e-05
-0.00189934980269371,-0.000910759026453437,1.3985413389244e-05,4.49860769969945e-05
-0.00189843189110946,-0.000915670449475673,1.64872178742597e-05,3.93807939922247e-05
-0.00189770471439986,-0.000920307691115599,1.75735265078052e-05,3.47363006980751e-05
-0.00189671527723761,-0.000927412565196309,1.71403380687887e-05,2.90345603741426e-05
-0.00189858686319511,-0.000935864504329235,1.48903256462768e-05,2.09191086142234e-05
-0.00190352212807668,-0.000944948252734438,1.14419199716074e-05,1.17716038900657e-05
-0.00190607320702512,-0.000953972396491313,8.49474630618053e-06,3.31569769041506e-06
-0.00190678846280506,-0.000961887893789285,6.86774393040308e-06,-4.37450916612136e-06
-0.00190815936971661,-0.000969219265533642,5.66402225060227e-06,-1.16665284351605e-05
-0.00191059123936839,-0.000976133404739702,4.1145196730786e-06,-1.77878484961244e-05
-0.00191133033700766,-0.000979769288287716,2.69577144116653e-06,-2.15482517617075e-05
-0.00191220056487325,-0.000980305730122669,1.57886676215232e-06,-2.29624603637712e-05
-0.00191475164382169,-0.000982177316080172,-3.1435273348292e-07,-2.33266559190157e-05
-0.00191719543440315,-0.000982546864899806,-3.65058044032864e-06,-2.38067012169132e-05
-0.0019223452760187,-0.000981891213768197,-7.75615345017614e-06,-2.43666215668834e-05
-0.00192633878745668,-0.000982511102110809,-1.22935208875386e-05,-2.41490721549138e-05
-0.00193156015465022,-0.000980913697535616,-1.76930809803941e-05,-2.26831532160296e-05
-0.00193645965674279,-0.00097877985112547,-2.2521025844191e-05,-2.04327068179978e-05
-0.00193754446134236,-0.000975847302427727,-2.30503838479681e-05,-1.81943017477374e-05
-0.00193237077786748,-0.000973725376947246,-1.80574445185759e-05,-1.64912331190829e-05
-0.00192581426655139,-0.000973677693228584,-1.20771232981531e-05,-1.57540819767148e-05
-0.00192480098752981,-0.000973939953681228,-1.07247359075027e-05,-1.62499391376801e-05
-0.00192860376409315,-0.000973713456017581,-1.38742274620968e-05,-1.72061767323198e-05
-0.00193090450351861,-0.000973296223479284,-1.64873080805799e-05,-1.7009864780271e-05
-0.00192912828499843,-0.000972759781644331,-1.53113441991042e-05,-1.53710125897193e-05
-0.00192559968981741,-0.000970256386414551,-1.14355555530903e-05,-1.42296683959691e-05
-0.00192178499232441,-0.000970411358500204,-6.65187466245378e-06,-1.49653530559492e-05
-0.00191559802982795,-0.000971365032873454,-1.04103419292e-06,-1.58409373489458e-05
-0.00190862428597357,-0.000969934521313579,5.11225645707156e-06,-1.43769238604757e-05
-0.00190434467222361,-0.000966286716835899,1.01973600586648e-05,-1.11039881017628e-05
-0.00190236579789911,-0.000961709079844301,1.33402871271504e-05,-7.88116992207359e-06
-0.00189899217480374,-0.000957799014913977,1.52365921278325e-05,-3.36991558274183e-06
-0.00189795505392283,-0.000949084815328408,1.60179529282305e-05,5.37400864328611e-06
-0.00190080415611292,-0.000936913546139809,1.47497647004473e-05,1.61856330584645e-05
-0.0019029618443824,-0.000931906755680248,1.20645346851987e-05,2.15555364148191e-05
-0.0019044519605906,-0.000935339983423947,1.05169997721239e-05,1.76253044005339e-05
-0.00190382015131832,-0.000943017062128607,1.05487092082949e-05,9.53769368222849e-06
-0.00190665733257874,-0.00094826227118148,8.61522415790852e-06,4.65614329038247e-06
-0.00191427480663507,-0.000948143061884824,1.87465267881208e-06,3.77853001630821e-06
-0.00192149889001244,-0.000948870238594427,-6.88006964729697e-06,2.84662141088067e-06
-0.00192623149908969,-0.000951480922191198,-1.16012765168942e-05,4.59679096220493e-07
-0.00192575466190306,-0.000953030643047729,-9.44268652341126e-06,-1.11931271033444e-06
-0.00191862594596302,-0.00095199352216682,-2.64797438579506e-06,-8.25702913301033e-07
-0.00190957796034682,-0.00095036035480263,5.04574495122681e-06,3.33730402931248e-07
-0.00190465461639491,-0.000948941764172421,1.11792712951616e-05,2.85809145322702e-06
-0.00190218698395413,-0.000942587908660645,1.40521075314765e-05,8.53645967807234e-06
-0.001903653258303,-0.000934374388121032,1.25462214763083e-05,1.61570457916408e-05
-0.00190767061160032,-0.00092934375580214,7.77084998831613e-06,2.14968741704576e-05
-0.00191282045321586,-0.000928592737233206,3.07711088179633e-06,2.2626459084369e-05
-0.00191613447166291,-0.000929164941857156,9.39882039368921e-07,2.18835842156925e-05
-0.0019158245274916,-0.000929105337208827,5.69443409780843e-07,2.15882773047392e-05
-0.00191631328560789,-0.00092972522555144,-5.28481828634559e-07,2.09922693668043e-05
-0.00192023527146788,-0.000932824667264501,-3.41497666135501e-06,1.86923864589623e-05
-0.0019245625689365,-0.0009362578950082,-7.06072446434297e-06,1.50916569818783e-05
-0.00192673217813564,-0.000939929541345211,-1.01643829418694e-05,1.10429990803435e-05
-0.00192909252220944,-0.000944566782985138,-1.24039315593978e-05,6.79796232549111e-06
-0.00193144094535356,-0.000947904643291512,-1.39156430541388e-05,3.84827697533494e-06
-0.00193259727553113,-0.00094749933168288,-1.46508430184396e-05,5.05033221728945e-06
-0.00193183433603253,-0.00094028716923518,-1.48277076677792e-05,1.07444077993588e-05
-0.00193300258713976,-0.00093568569038425,-1.53295182704746e-05,1.68157189151142e-05
-0.00193511259169058,-0.000934004839301398,-1.66357147740803e-05,1.88381913598629e-05
-0.00193514835447957,-0.000936102922922547,-1.73371118521169e-05,1.67058092119457e-05
-0.00193327676852207,-0.000939095076268618,-1.47710602171032e-05,1.3392049542906e-05
-0.00192629110373802,-0.000942575987730979,-7.91274247574819e-06,1.07770199300477e-05
-0.00191794645297208,-0.0009449959364531,8.97615216065014e-07,8.81796074047119e-06
-0.00191096078818803,-0.000946271475927322,8.04125672049203e-06,7.47087274720175e-06
-0.00190713416976536,-0.000946772154973278,1.21916712600749e-05,6.95039424061864e-06
-0.00190424930478628,-0.00094758277819054,1.48550751981612e-05,6.64498372456263e-06
-0.0019021273793058,-0.000949108657187739,1.76429604760621e-05,5.8330791013204e-06
-0.00189960014221669,-0.000949466285077708,2.04827958899789e-05,5.14483449091624e-06
-0.00189728748186156,-0.00094921594555473,2.27334212638129e-05,5.53468498539474e-06
-0.00189592849587968,-0.000949192103695399,2.42646616660506e-05,6.09749559436173e-06
-0.00189638149120697,-0.000950944480356245,2.43753592577164e-05,4.66389672447281e-06
-0.00189976703523201,-0.000954961833653559,2.11949847797435e-05,4.56260811094209e-07
-0.00190722953720269,-0.000961339531024666,1.39113700431217e-05,-5.54240508634838e-06
-0.00191637289025622,-0.000968480167894373,4.77239243310011e-06,-1.28291273437292e-05
-0.00192447912242884,-0.000978136120923526,-2.90642093524918e-06,-2.19542689157352e-05
-0.00193094026630761,-0.000988376199506295,-8.30274710629795e-06,-3.21140276517203e-05
-0.00193421852196565,-0.000995791017758311,-1.29154326641418e-05,-3.99688603922325e-05
-0.00193966638682284,-0.000998437464144079,-1.70937207690616e-05,-4.25115684078796e-05
-0.00194199096810764,-0.000997173845599523,-1.87899682557861e-05,-4.04329835731011e-05
-0.00193877231709792,-0.000993204176020871,-1.62822563833702e-05,-3.71523233614764e-05
-0.00193370592199003,-0.000990176259885803,-1.05980343409739e-05,-3.4775022442802e-05
-0.00192836534549983,-0.000989067613426901,-4.66398777159138e-06,-3.26479078385844e-05
-0.00192506324798246,-0.000986349641463139,-1.27703496534957e-06,-3.01173243291992e-05
-0.00192554008516908,-0.000983464776484059,-2.03108319165761e-06,-2.85000884582281e-05
-0.0019306303221363,-0.000983929692741018,-6.23082289345674e-06,-2.85320125359192e-05
-0.00193467151729295,-0.00098348861834339,-9.93908440276651e-06,-2.74228524394318e-05
-0.00193235885693782,-0.000975871144287058,-8.14106589612648e-06,-2.15447405455508e-05
-0.0019245268061475,-0.000966620502866536,1.98336932903983e-07,-1.21034313025066e-05
-0.00191555034610929,-0.000959563312504489,1.02103038040688e-05,-4.92856996871389e-06
-0.00190906536037119,-0.000957560596320665,1.5916590069871e-05,-3.30533092670207e-06
-0.00190894615107454,-0.000956928787048387,1.61932343053327e-05,-3.88575971994544e-06
-0.00191156875560097,-0.000954818782497572,1.43880593298754e-05,-1.83629614751869e-06
-0.00191354762992547,-0.000950765666411261,1.29843195887024e-05,2.71641307583472e-06
-0.00191419136012741,-0.000945353564343069,1.1106117418453e-05,6.58029197318515e-06
-0.00191868555061135,-0.000941634234287395,7.37474459013876e-06,9.51294872296308e-06
-0.00192449104335851,-0.000937855299583393,2.76756204786477e-06,1.38011199976441e-05
-0.00192722093625193,-0.000932312067288879,-5.85288575878724e-07,1.86918312411905e-05
-0.00192760240600123,-0.000929427202309799,-2.044060921924e-06,2.0272181878727e-05
-0.00193043958726165,-0.000931441839423289,-2.67451099447076e-06,1.77235280629701e-05
-0.00193094026630761,-0.000934231336965044,-3.61402186347301e-06,1.52286061588445e-05
-0.0019317747313842,-0.000932407434726204,-5.20433388832685e-06,1.59723884536544e-05
-0.00193423044289532,-0.000929403360450468,-7.17867938182246e-06,1.82022098779536e-05
-0.0019366980753361,-0.000926995332658013,-8.77068838988685e-06,1.94186831431421e-05
-0.00193634044744613,-0.000926578100119716,-8.90991008360776e-06,2.06449017720832e-05
-0.00193454038706663,-0.000922787244486048,-7.1405094332164e-06,2.34282075677269e-05
-0.00193175088952487,-0.000918352658650437,-4.46503502480969e-06,2.57910490852259e-05
-0.00193132173605691,-0.000919783170210312,-2.90419014925097e-06,2.49797548919406e-05
-0.00193161975929855,-0.00092281108634538,-4.02841540476842e-06,2.20697369517682e-05
-0.00193541061493222,-0.000922763402626717,-7.70223113639258e-06,1.99816126862661e-05
-0.00193984520076783,-0.000923883970015286,-1.19198561644482e-05,1.85313668533988e-05
-0.00194220554484162,-0.000927162225673331,-1.40425348982824e-05,1.55100029547792e-05
-0.00194112074024205,-0.000929892118566758,-1.28980409895599e-05,1.16776288322084e-05
-0.00193767559156868,-0.000930678899924689,-9.8586718118554e-06,1.0325409657354e-05
-0.00193535101028389,-0.000928604658162871,-7.36326437854408e-06,1.18101914141092e-05
-0.00193496954053459,-0.000927352960547981,-6.36904913663365e-06,1.24885966760295e-05
-0.00193419468010632,-0.000930094774371074,-5.92333948676206e-06,9.78271242988689e-06
-0.00193290721970244,-0.000934279020683707,-5.11724866717352e-06,4.86072400976239e-06
-0.00193271648482779,-0.000938594397222662,-4.20271068718507e-06,-5.58250989054719e-07
-0.0019317389685952,-0.0009449959364531,-3.3274433305826e-06,-6.58886091360465e-06
-0.00193002235472336,-0.000951147136160561,-1.50501889062518e-06,-1.29242421340763e-05
-0.00192589771305905,-0.000954532680185597,2.0139677854661e-06,-1.73920249684053e-05
-0.00192232143415936,-0.000955975112675137,6.12106051062003e-06,-1.88819998904911e-05
-0.00192017566681955,-0.000956153926620121,8.76974847597165e-06,-1.9315069051777e-05
-0.00191890012734533,-0.000957417545164677,9.06357577567251e-06,-2.06117383907224e-05
-0.00192099821096648,-0.000958609638131239,7.46963996878598e-06,-2.18877289093574e-05
-0.00192381155036757,-0.000957524833531668,4.62433658622251e-06,-2.19964547948207e-05
-0.00192748319670458,-0.000958991107880539,1.3004354127184e-06,-2.27743755510911e-05
-0.00192911636406877,-0.000963306484419494,-8.85739386031686e-07,-2.65456573386859e-05
-0.00192894947105345,-0.000966775474952189,-5.01270532736316e-07,-3.13573760304766e-05
-0.00192654144326099,-0.00096764570281778,1.79971515366193e-06,-3.20040356376967e-05
-0.00192500364333413,-0.000962328968186913,4.05527861949774e-06,-2.60843324790429e-05
-0.00192191612255073,-0.000953042563977394,6.1450014512434e-06,-1.66325910757573e-05
-0.00191774379716777,-0.000944018420220519,1.03697708444405e-05,-8.34009339327473e-06
-0.00191148530909331,-0.000939452704158586,1.77175038897631e-05,-3.33735208266973e-06
-0.00190312873739771,-0.000937748011216403,2.50469044606747e-05,-1.240937425973e-06
-0.00190002929568465,-0.000938093718176706,2.7855260298343e-05,-8.94865702627617e-07
-0.00190391551875565,-0.000937032755436465,2.51772919829594e-05,-4.13651368286829e-07
-0.0019081951325056,-0.000933599527692767,1.98201057910151e-05,2.76839122878284e-06
-0.00191407215083075,-0.000929069574419831,1.40081742527194e-05,9.48251461151655e-06
-0.0019211651039818,-0.000921487863152496,7.24245835880982e-06,1.67524797373661e-05
-0.00192897331291278,-0.000916922147090563,-5.31080162902939e-07,2.01213826896433e-05
-0.00193314563829575,-0.000920736844583562,-5.86606639854613e-06,1.85696802915707e-05
-0.00193301450806943,-0.000923943574663614,-4.57692757025712e-06,1.58169458652844e-05
-0.00192544471773176,-0.000923502500265986,2.68749520079089e-06,1.60500055082593e-05
-0.00191717159254382,-0.000920343453904596,9.95671855458069e-06,1.93911066851266e-05
-0.00191556226703896,-0.000918543393525087,1.1974963846246e-05,2.25389146853828e-05
-0.00191874515525968,-0.000919365937672015,9.27177127759818e-06,2.30573070794257e-05
-0.00192089092259949,-0.000919723565561984,6.0498593680553e-06,2.15843715639273e-05
-0.0019223095132297,-0.000922453458455411,4.36240121280021e-06,2.00040097115851e-05
-0.00192478906660015,-0.000925374086223488,2.47022858197272e-06,1.9066250662601e-05
-0.00192798387575053,-0.000925755555972788,-1.40362164552456e-06,1.84102526683494e-05
-0.00193252574995314,-0.000926733072205369,-6.22192354213593e-06,1.76343359186875e-05
-0.00193606626606383,-0.000929844434848096,-1.00710882794569e-05,1.62718075737323e-05
-0.00193874847523859,-0.000933241899802798,-1.3067560128067e-05,1.35324559012249e-05
-0.00194246780529426,-0.000938105639106371,-1.65425606192514e-05,9.26254424514235e-06
-0.00194536459120301,-0.000943374690018576,-2.03269239523604e-05,4.68640933224954e-06
-0.00194724809809018,-0.000947845038643183,-2.28011980274071e-05,1.04858089236493e-06
-0.00194789182829212,-0.000952541884931438,-2.33807947982989e-05,-2.08749054439713e-06
-0.00194803487944811,-0.000956726131244071,-2.32159946459354e-05,-5.90454296946752e-06
-0.00194629442371693,-0.000961268005446673,-2.33772238955485e-05,-1.00033804868991e-05
-0.00194692623298921,-0.000965297279673653,-2.39373961408115e-05,-1.26681211742328e-05
-0.00194846403291607,-0.000967931805129755,-2.49595524563599e-05,-1.36609762137153e-05
-0.00194867860965005,-0.00096889740043267,-2.65013414945704e-05,-1.49912022869898e-05
-0.00194836866547875,-0.0009731174095343,-2.69646897474752e-05,-1.80486890306202e-05
-0.00194482814936806,-0.000978124199993861,-2.33180920123721e-05,-2.14709945657147e-05
-0.00193536293121355,-0.000980639516153307,-1.44205369053731e-05,-2.32153819889407e-05
-0.00192354928991492,-0.000981223641706922,-3.05783823991226e-06,-2.36929324911089e-05
-0.00191268932298954,-0.00098416811133433,6.63106680749627e-06,-2.50445382977665e-05
-0.00190622817911078,-0.000987362920484717,1.29321793716532e-05,-2.75078802279696e-05
-0.00190249692812544,-0.000989127218075229,1.66643380155058e-05,-2.81966598509138e-05
-0.00189919483060806,-0.000985586701964539,1.86566240494794e-05,-2.41184927282659e-05
-0.00189837228646113,-0.000977468548862251,1.89096344709343e-05,-1.54853844935915e-05
-0.00189924251432672,-0.000968980846940329,1.77653258398122e-05,-5.37454073538315e-06
-0.00190045844915262,-0.000961041507783026,1.60419110243168e-05,3.3195626927706e-06
-0.00190217506302446,-0.000954318103451616,1.3834401321129e-05,9.83736225181602e-06
-0.00190405856991163,-0.000950694140833267,1.05135769471004e-05,1.47365418557308e-05
-0.00190869581155156,-0.000948679503719777,6.04637549210382e-06,1.82312329359888e-05
-0.00191355955085513,-0.000946617182887625,1.17312338980151e-06,2.01221135960889e-05
-0.00191667091349786,-0.000945818480600028,-3.69648525681021e-06,2.09126247067737e-05
-0.00192102205282581,-0.000947594699120205,-8.45644893606649e-06,2.16692700113341e-05
-0.00192527782471644,-0.000945854243389025,-1.2082170141733e-05,2.22292767722275e-05
-0.00192446720149918,-0.00094853645256379,-1.2855333827571e-05,2.06894163160923e-05
-0.00192152273187177,-0.00095430618252195,-1.02818238494403e-05,1.59428204914916e-05
-0.00191679012279452,-0.000959420261348501,-5.78088934348226e-06,1.0053365443325e-05
-0.00191171180675696,-0.00096429592158174,-1.26762118151134e-06,6.42005411111598e-06
-0.00190850507667691,-0.000965869484297602,1.88912501053778e-06,5.70018269398049e-06
-0.00190626394189977,-0.000965023098291343,2.66159828880272e-06,5.41394688349846e-06
-0.00190874349527022,-0.000967276153998146,9.79059528938183e-07,3.89780649170189e-06
-0.00191001903474444,-0.000970208702695888,-9.72470785394402e-07,2.46571184730113e-06
-0.00190799247670129,-0.000968599377191029,-1.09659474102354e-07,2.51503989777558e-06
-0.00190527450473753,-0.000968980846940329,3.66030135913399e-06,2.59883863805715e-06
-0.00190131675608854,-0.000971758423552419,6.62894822124596e-06,4.8950533532734e-07
-0.00190141212352586,-0.000975143967577455,5.97757598161241e-06,-3.15056428495692e-06
-0.00190405856991163,-0.00097706323725362,3.80932516376789e-06,-5.5789836169029e-06
-0.00190342676063936,-0.000977480469791917,4.43754292407754e-06,-5.86503871519427e-06
-0.00189825307716448,-0.000977182446550277,8.71274506997859e-06,-5.57783468566577e-06
-0.00189352046808722,-0.000976967869816295,1.35122197202167e-05,-5.70750783947675e-06
-0.00189163696120006,-0.000976300297755021,1.6362391015594e-05,-5.35379920449831e-06
-0.00188958656129757,-0.000974500237375512,1.76748964179865e-05,-3.98343453185055e-06
-0.00188868057064298,-0.000972700176996003,1.79545916002827e-05,-2.73412946043331e-06
-0.00189211379838668,-0.000972902832800319,1.58653770459312e-05,-2.41422113068252e-06
-0.00189704906326825,-0.000970888195686829,1.10521612866159e-05,-1.97877133381697e-06
-0.00190006505847365,-0.000968599377191029,6.80920816369283e-06,-2.33867086062226e-07
-0.00190148364910386,-0.000966548977288543,6.9977742150078e-06,2.30912397545151e-06
-0.00189776431904819,-0.000963199196052503,1.06639553125551e-05,4.37679331286518e-06
-0.00189586889123135,-0.000961315689165335,1.23639926766742e-05,5.25173256819792e-06
-0.00190051805380094,-0.000962567386780225,8.67316613624784e-06,3.7995508130434e-06
-0.0019067407790864,-0.000967979488848417,2.45118147374494e-06,-2.13425854184523e-06
-0.00191044818821241,-0.000977659283736901,-8.80773379374777e-07,-1.29320673217143e-05
-0.00191034089984542,-0.000988292752998635,-1.17542969056241e-07,-2.44787039620941e-05
-0.00191024553240809,-0.000994336664339105,7.49683378769265e-07,-3.09506052153943e-05
-0.00191230785324024,-0.000993597566699837,-1.84197309058469e-06,-3.10253027303376e-05
-0.00191844713201804,-0.000990831911017413,-6.71273588678164e-06,-2.94949428595608e-05
-0.00192331087132161,-0.000992739259763912,-1.03650301826413e-05,-3.17756599156927e-05
-0.00192402612710155,-0.000997853338590463,-1.19014746116313e-05,-3.81776412405864e-05
-0.00192639839210501,-0.00100346809646297,-1.32965522113722e-05,-4.46008871004656e-05
-0.001930320377965,-0.00100597149169275,-1.54072812722933e-05,-4.74248992261031e-05
-0.00193046342912098,-0.00100266939417537,-1.62553082487031e-05,-4.57443172412822e-05
-0.00192891370826445,-0.000995481073587005,-1.38534001222161e-05,-3.93991928480476e-05
-0.00192503940612313,-0.000983226357890746,-8.70725789049796e-06,-2.76595097294265e-05
-0.00191930543895396,-0.000966560898218208,-2.55689805549329e-06,-1.15289637752058e-05
-0.00191365491829246,-0.000949049052539411,3.43099645291637e-06,4.18860309966475e-06
-0.00191034089984542,-0.000938320215840352,7.78885074015642e-06,1.3870874164997e-05
-0.00191078197424304,-0.000936162527570875,8.06550845020603e-06,1.6708493234712e-05
-0.00191599142050692,-0.000933897550934407,3.53268729590978e-06,1.75229021752365e-05
-0.00192219030393304,-0.000928068216327918,-2.46541750830071e-06,2.08682471341031e-05
-0.00192689907115096,-0.000923991258382276,-5.64864764345911e-06,2.58837603760441e-05
-0.0019275785641419,-0.000921034867825202,-6.03140370740236e-06,2.87944432615659e-05
-0.00192893755012378,-0.000917899663323144,-7.26718538453911e-06,2.92911015338607e-05
-0.00193370592199003,-0.000914764458821085,-1.05670654106957e-05,3.15011527332312e-05
-0.00193616163350115,-0.000909531170697878,-1.23285860874716e-05,3.82376877710468e-05
-0.0019325376708828,-0.000899064594451463,-9.040260017192e-06,4.68871832572103e-05
-0.00192656528512033,-0.000892007404089415,-1.81791597806622e-06,5.24287138702638e-05
-0.00191982995985925,-0.000891518645973125,5.85630998939256e-06,5.27563243468711e-05
-0.00191332113226182,-0.000895547920200105,1.25262477634945e-05,4.93893327994519e-05
-0.00190744411393667,-0.000898897701436144,1.82135480098246e-05,4.44213257891074e-05
-0.0019062877837591,-0.000903248840764096,2.12975577287254e-05,3.90106003074455e-05
-0.00190759908602232,-0.000908124500997335,1.96015587130852e-05,3.42453218869739e-05
-0.00191339265783981,-0.000911557728741033,1.4405006779615e-05,3.10871765461878e-05
-0.00191791069018308,-0.000912511403114283,1.00406155233443e-05,2.89271342113729e-05
-0.00192018758774922,-0.000914764458821085,8.61253666871522e-06,2.57423897665283e-05
-0.00192152273187177,-0.000920200402748609,7.68884520865175e-06,2.04541473120694e-05
-0.00192446720149918,-0.000927126462884334,4.43568723385878e-06,1.43177111047912e-05
-0.00192979585705971,-0.000930047090652412,-2.72446456665989e-07,9.44679197633855e-06
-0.00193355094990438,-0.000933051164928148,-3.65648675085842e-06,6.44867753504963e-06
-0.00193536293121355,-0.000935888346188566,-5.20881613269348e-06,3.82042548407499e-06
-0.00193692457299975,-0.000940632876195483,-6.8744683157099e-06,-6.35132624743967e-07
-0.00193990480541615,-0.000946748313113946,-9.99782380714227e-06,-7.91221038567905e-06
-0.00194488775401638,-0.00095545059176985,-1.42208261205711e-05,-1.70803009268218e-05
-0.00194975149331996,-0.00096582180057894,-1.89304976237844e-05,-2.63293275822687e-05
-0.00195350658616463,-0.000973391590916609,-2.35759445726776e-05,-3.44251035592139e-05
-0.00195659410694802,-0.000978839455773798,-2.64917676269704e-05,-4.05947772414108e-05
-0.00195666563252602,-0.000981891213768197,-2.57113309390915e-05,-4.35097633286535e-05
-0.00195257675365071,-0.000981020985902606,-2.18334749482427e-05,-4.21522086501748e-05
-0.00194697391670787,-0.000976741372152649,-1.81938218270102e-05,-3.81150688619659e-05
-0.00194723617716051,-0.0009731174095343,-1.67467328252013e-05,-3.48911074329358e-05
-0.0019458175865303,-0.000971925316567738,-1.51174221579265e-05,-3.34523663250281e-05
-0.00193818819154431,-0.000968945084151333,-9.57340526910884e-06,-3.06118129640944e-05
-0.00192946207102907,-0.000963151512333841,-2.83219561419845e-07,-2.40419390648461e-05
-0.00192104589468514,-0.000955390987121522,8.29976929739014e-06,-1.69885625275383e-05
-0.00191673051814619,-0.000952696857017091,1.23317384957585e-05,-1.46070476910711e-05
-0.00191575300191361,-0.000955903587097143,1.21532714142583e-05,-1.67576177947999e-05
-0.00191710006696582,-0.000957989749788627,1.05511760406637e-05,-1.86495932466452e-05
-0.001918876285486,-0.000956881103329724,9.10814515838132e-06,-1.85974570638394e-05
-0.00192035448076454,-0.000959241447403517,7.40761633426433e-06,-2.03108853483202e-05
-0.00192095052724782,-0.000965499935477968,4.80513541379022e-06,-2.58448649169512e-05
-0.00192482482938914,-0.000970208702695888,1.59405788168882e-06,-3.08468289267487e-05
-0.00192766201064956,-0.000969243107392973,-1.19253772768811e-06,-3.00411748024863e-05
-0.00192706596416628,-0.000963544903012806,-1.98091438027707e-06,-2.39694654415078e-05
-0.00192357313177425,-0.000956201610338784,1.04290032294822e-06,-1.63183181580888e-05
-0.00191599142050692,-0.00094758277819054,8.39838368067498e-06,-7.25229674719571e-06
-0.00190641891398543,-0.000934660490433007,1.76381921950765e-05,5.54052974235894e-06
-0.00189942132827171,-0.000919210965586362,2.4178494956031e-05,2.01978117400317e-05
-0.00189759742603287,-0.000911176258991734,2.46096050715463e-05,3.03961838343909e-05
-0.0019033433141317,-0.000908529812605966,1.91616566323878e-05,3.27143416097829e-05
-0.00191096078818803,-0.000909650379994534,1.09679969637834e-05,3.02945695423142e-05
-0.00191804182040941,-0.000913751179799508,3.39937528382468e-06,2.77510914410564e-05
-0.00192232143415936,-0.000916492993622601,-1.90002302894876e-06,2.58827867988003e-05
-0.00192506324798246,-0.000918316895861441,-5.19709295717e-06,2.33515022472702e-05
-0.00192798387575053,-0.000920724923653896,-7.53742663375777e-06,2.05558797216143e-05
-0.00192862760595248,-0.000923955495593279,-9.32030939366944e-06,1.90156222402558e-05
-0.00192790042924287,-0.000924718435091879,-9.92374267828508e-06,1.85974205849132e-05
-0.0019271970943926,-0.000924301202553582,-8.96724900920534e-06,1.79296520946793e-05
-0.00192655336419066,-0.000926780755924031,-7.61521693964876e-06,1.67095256133757e-05
-0.00192432415034319,-0.000928247030272903,-7.71018179464339e-06,1.56406090752586e-05
-0.00192577850376239,-0.000929307993013143,-9.45271325075039e-06,1.48607043341962e-05
-0.00192824613620318,-0.000930094774371074,-1.09068063512762e-05,1.41845670428783e-05
-0.00192648183861267,-0.000930368955753383,-1.03569847993324e-05,1.41378543319765e-05
-0.00192369234107091,-0.000930476244120374,-8.39802961313375e-06,1.49835474739441e-05
-0.00192229759230003,-0.000930094774371074,-6.94438654118231e-06,1.54260518931835e-05
-0.00192168962488709,-0.000931787546383592,-6.64457158927223e-06,1.41883923780197e-05
-0.00192121278770046,-0.000933599527692767,-6.04526059899237e-06,1.23583579587345e-05
-0.00191712390882515,-0.00093481546251866,-3.18462531585834e-06,1.20761700653671e-05
-0.00191144954630432,-0.000934529360206685,2.38715895888671e-06,1.30319455113232e-05
-0.00190539371403418,-0.000934684332292338,8.89522696175608e-06,1.24087488378146e-05
-0.00190044652822295,-0.000939154680916946,1.33705927266947e-05,8.64580940116398e-06
-0.00189889680736642,-0.000945496615499056,1.39873923115857e-05,3.36526606705109e-06
-0.00190120946772155,-0.000949728545530352,1.19896968133157e-05,-9.83861138680108e-07
-0.00190244924440677,-0.000952649173298429,1.09072582959878e-05,-3.64105015530751e-06
-0.00189981471895067,-0.000954508838326266,1.32109937726489e-05,-4.99806336262924e-06
-0.00189437877502315,-0.000955975112675137,1.78396965336581e-05,-5.32840519701996e-06
-0.00189161311934072,-0.000955247935965534,2.12094587335662e-05,-5.22075939360326e-06
-0.00189276944951829,-0.000956845340540727,2.01835713679823e-05,-5.91020685331125e-06
-0.00189807426321949,-0.000959324893911176,1.39739041049563e-05,-7.88296858883469e-06
-0.00190835010459126,-0.000961589870547644,4.33206503230483e-06,-1.01674029384709e-05
-0.00191752922043378,-0.000964605865753047,-5.16477179422621e-06,-1.21515511110718e-05
-0.00192313205737663,-0.000966990051686171,-1.09195987101308e-05,-1.49355790079469e-05
-0.00192480098752981,-0.000972104130512722,-1.18808361096749e-05,-1.9334502551462e-05
-0.00192240488066702,-0.000976860581449305,-1.02503245012953e-05,-2.34655850545263e-05
-0.00192091476445882,-0.000977504311651248,-8.80229177221048e-06,-2.42719377180028e-05
-0.00192102205282581,-0.00097494131177314,-7.84586231894093e-06,-2.12261570623939e-05
-0.00191817295063573,-0.000970923958475826,-5.71546419758688e-06,-1.68725721408294e-05
-0.00191403638804176,-0.000968062935356077,-1.66942102293941e-06,-1.38019244140735e-05
-0.00190982829986979,-0.000967276153998146,3.07754850563711e-06,-1.27067487454425e-05
-0.00190607320702512,-0.000968051014426411,7.02691148702281e-06,-1.32905009557986e-05
-0.00190314065832738,-0.000969672260860935,9.73799239452896e-06,-1.4917629389351e-05
-0.00190155517468185,-0.000970709381741844,1.13751345995755e-05,-1.56597872861151e-05
-0.00190123330958088,-0.000968635139980026,1.20061111657265e-05,-1.27909737463511e-05
-0.00190233003511012,-0.000960552749666735,1.14667776002356e-05,-5.90544582399392e-06
-0.00190389167689631,-0.000954020080209975,9.0831936576572e-06,1.53876961314701e-06
-0.00190998327195545,-0.000950527247817948,3.85965411925854e-06,5.39107356668172e-06
-0.00191758882508211,-0.000950503405958617,-3.76331952832621e-06,5.01625015032415e-06
-0.00192455064800684,-0.000951957759377823,-1.05954319148038e-05,3.10070462700171e-06
-0.00192686330836197,-0.000954067763928638,-1.29167549273647e-05,1.85217406217907e-06
-0.00192476522474082,-0.000954890308075566,-1.04481561845796e-05,9.30903630824261e-07
-0.00192111742026314,-0.000956094321971793,-6.73409321877938e-06,-9.93779265008324e-07
-0.00191969882963293,-0.000959444103207833,-5.21244966639692e-06,-4.20614916555548e-06
-0.00192108165747414,-0.000963544903012806,-6.320233835508e-06,-7.8138930970952e-06
-0.00192337047596994,-0.000965178070376996,-8.79323933541831e-06,-1.03470887247311e-05
-0.00192711364788494,-0.000965189991306662,-1.18466002816782e-05,-9.87854529134594e-06
-0.00192971241055205,-0.000959062633458533,-1.4796338362535e-05,-4.70373380891817e-06
-0.00193103563374493,-0.000949823912967677,-1.59411161274963e-05,4.9184261792501e-06
-0.00192923557336542,-0.000939190443705943,-1.35705214857338e-05,1.59146086925138e-05
-0.00192297708529097,-0.000929355676731806,-7.8602220944906e-06,2.40011324522814e-05
-0.00191683780651318,-0.000927722509367615,-9.82220236472719e-07,2.6327669301449e-05
-0.00191125881142967,-0.00093146568128262,4.33595162576185e-06,2.27911122472579e-05
-0.00190927993710517,-0.000937628801919746,6.1961276566975e-06,1.56122720678153e-05
-0.0019120098299986,-0.000944900569015775,4.58106026487369e-06,8.07086668127902e-06
-0.00191373836480012,-0.000950062331560989,1.63019842264615e-06,2.78063665271635e-06
-0.00191619407631124,-0.000953209456992713,-1.7437066125275e-07,5.69321272278325e-08
-0.0019173861692778,-0.0009541154476473,-7.29368603752971e-07,-2.0027430687146e-06
-0.00191792261111275,-0.000956738052173737,-2.12997394211927e-06,-5.14552037785632e-06
-0.0019215465737311,-0.00096111303336102,-5.24276338618941e-06,-8.72764489534444e-06
-0.00192424070383553,-0.000962221679819922,-8.01309839096546e-06,-1.04176345118824e-05
-0.00192482482938914,-0.000959706363660476,-8.19544117602289e-06,-8.89875023841226e-06
-0.00192244064345602,-0.000956010875464134,-6.14791335185735e-06,-4.98461700791263e-06
-0.00191953193661761,-0.000951397475683539,-3.44692516293552e-06,-8.66210180761063e-08
-0.00191707622510649,-0.000945413168991397,-3.05197165627845e-07,5.18158210680473e-06
-0.00191307079273884,-0.000939726885540896,3.55126569145541e-06,1.02084361524956e-05
-0.00190938722547217,-0.000937271174029778,6.57962933695447e-06,1.32376262125523e-05
-0.00191023361147842,-0.000937902983302056,6.54517037657608e-06,1.24149350088065e-05
-0.00191288005786419,-0.000941610392428064,3.72697442163438e-06,8.00326052227579e-06
-0.00191513311357099,-0.000947248992159902,8.47660287438767e-07,2.60769833605094e-06
-0.00191724311812181,-0.000950706061762932,-2.36524914081309e-07,-1.13009860122948e-06
-0.00191609870887391,-0.000952506122142441,1.33821166279266e-07,-2.56454678354217e-06
-0.00191442977872072,-0.000952065047744813,1.45130497895931e-06,-2.67360901182966e-06
-0.00191299926716085,-0.00095171934078451,4.29008725548533e-06,-2.35283735514291e-06
-0.00190709840697637,-0.000951254424527551,8.8483839227407e-06,-1.59527429756825e-06
-0.00190194856536082,-0.00094978815017868,1.38686232526154e-05,-8.28029725579878e-08
-0.0018991471468894,-0.000947785433994855,1.78435670789681e-05,1.88120258421025e-06
-0.00189580928658302,-0.000946033057334009,2.0189131605665e-05,3.09693036096055e-06
-0.00189535629125573,-0.000948214587462818,2.06972396841541e-05,2.12971476701864e-06
-0.00189714443070557,-0.000951623973347185,1.89881467751344e-05,-1.46975366926967e-06
-0.00190100681191723,-0.000955963191745471,1.51406349422195e-05,-6.50459442572499e-06
-0.00190629970468877,-0.000961494503110319,9.94850988405023e-06,-1.10910528040932e-05
-0.00191156875560097,-0.000965666828493287,4.08390811236844e-06,-1.45258749698979e-05
-0.00191804182040941,-0.000967955646989086,-2.10954499963258e-06,-1.77111273436248e-05
-0.00192384731315656,-0.000971841870060078,-7.68563433077739e-06,-2.11766890629759e-05
-0.00192679178278397,-0.000975024758280799,-1.10772838107088e-05,-2.30855711749573e-05
-0.0019272686199706,-0.00097178226541175,-1.16263658349333e-05,-2.02389553955583e-05
-0.00192607652700403,-0.000962674675147216,-1.03515759003651e-05,-1.14976879928869e-05
-0.00192484867124848,-0.000952518043072107,-8.80592009995996e-06,2.67809805245538e-07
-0.00192323934574362,-0.00094268327609797,-7.98144282925548e-06,1.01371348946742e-05
-0.00192407381082021,-0.000937104281014459,-8.50114941241205e-06,1.50737139381745e-05
-0.00192666065255765,-0.000937664564708743,-1.05823669828913e-05,1.59625166905916e-05
-0.0019279957966802,-0.000937748011216403,-1.31094277837347e-05,1.61669260641485e-05
-0.00192973625241138,-0.000935363825283278,-1.38713262018843e-05,1.83877820502562e-05
-0.00192730438275959,-0.000931525285930949,-1.17496098884038e-05,2.2701699608672e-05
-0.00192332279225128,-0.000927889402382934,-8.05840416143784e-06,2.71463506533303e-05
-0.00192039024355353,-0.000925529058309141,-4.95014841811018e-06,2.98411872862719e-05
-0.001918840522697,-0.000924670751373217,-3.08685439356118e-06,3.03886653072756e-05
-0.00191679012279452,-0.000926601941979047,-1.6233628377439e-06,2.93649387665736e-05
-0.00191555034610929,-0.000929486806958127,8.53186702817678e-08,2.7077938180884e-05
-0.00191379796944845,-0.000932955797490823,1.67883085039506e-06,2.35270544137229e-05
