BCL,BCC,BCL_Filtered,BCC_Filtered
-,-,-,-
-0.00158594856178454,0.000781929539557072,-5.48090973304029e-20,-2.33348289513719e-20
-0.00158522138507494,0.000787818478811888,-2.60254548927355e-06,1.0731956526663e-05
-0.00158514985949694,0.000793683576207374,-2.42309627680236e-06,2.08630357576818e-05
-0.00157769927845593,0.000797379064403716,3.02881873507642e-06,2.8779476337836e-05
-0.00156297693031889,0.000796937990006089,1.4545577050583e-05,3.3837560508845e-05
-0.00154563197765541,0.00079725985510706,3.00737796116148e-05,3.80450136167868e-05
-0.00152893075519387,0.000798714208526266,4.57186772289535e-05,4.36036127595477e-05
-0.00151444682565015,0.000799369859657875,5.81451067291214e-05,4.95525184429773e-05
-0.00150387296103674,0.000798845338752588,6.59956758877994e-05,5.30659074030993e-05
-0.00149849662175754,0.000795722055180195,6.9740090065004e-05,5.37699334690576e-05
-0.00149555215213014,0.000791347073992912,7.11650875820076e-05,5.44953479192549e-05
-0.00149198779416012,0.000790941762384281,7.26200912199405e-05,5.73706586594481e-05
-0.00148757705018384,0.000789678143839725,7.51503537726884e-05,6.1029462596115e-05
-0.00148352393409752,0.000787544297429579,7.68485856124689e-05,6.24362869862435e-05
-0.00148469218520476,0.000781512307018775,7.44063481966383e-05,6.02315171877492e-05
-0.00148968705473465,0.000773298786479162,6.7282551653388e-05,5.5693741801031e-05
-0.00149655351022205,0.00076423887993329,5.93217800738436e-05,5.13862809587989e-05
-0.00149717339856466,0.000759697005730689,5.50779486228856e-05,4.91600617706758e-05
-0.00149645814278472,0.00075558428499605,5.53105202774904e-05,4.84374963603898e-05
-0.00149354943594631,0.000748848959734974,5.7156188529423e-05,4.62814866303247e-05
-0.00148999699890596,0.000740397020602049,5.73415823520497e-05,4.03766930009956e-05
-0.00149269112901039,0.000729823155988643,5.30178310801908e-05,3.20980253369309e-05
-0.00150465974239467,0.000719153923937912,4.05617962367742e-05,2.51659370307504e-05
-0.00152535447629419,0.00071219210101319,1.75137236196891e-05,2.1070235808882e-05
-0.00155366668425004,0.000706398529195698,-1.28706569522213e-05,1.77548654609578e-05
-0.00158132324107428,0.000700330775995897,-4.19272352992268e-05,1.34358328785812e-05
-0.00160064706806225,0.000693512004227162,-6.28930278323546e-05,9.30939983326435e-06
-0.00161316404421115,0.000687778037057998,-7.64347666430202e-05,6.8180821349644e-06
-0.0016216755879924,0.000684845488360255,-8.70951755208222e-05,4.34816865915914e-06
-0.00162858972719847,0.000678050558450851,-9.63152111982723e-05,-7.98108507888688e-07
-0.00163415680135231,0.000667178670595805,-0.000102060263745181,-8.42768705630185e-06
-0.00163491974085091,0.000658941308196861,-0.000104120386185107,-1.63376435225322e-05
-0.00163340578278338,0.000649511852831355,-0.000105654659846321,-2.45739725047361e-05
-0.00163548002454519,0.000637280978994428,-0.000108526472529671,-3.54819908275153e-05
-0.00163688669424574,0.000622665919224377,-0.000110103527097314,-4.87804506065197e-05
-0.00163060436431196,0.000611472166268359,-0.000106428626506524,-5.9581642736807e-05
-0.00161974439738657,0.000606942212995423,-9.6855969771974e-05,-6.34477292940914e-05
-0.00160595188176345,0.000608193910610313,-8.39798163367326e-05,-6.20431652666009e-05
-0.00159081230108811,0.000607478654830376,-6.98770568459262e-05,-6.17818177309627e-05
-0.00157289514380068,0.000602459943441149,-5.34952528422352e-05,-6.72001082257668e-05
-0.00154988774954604,0.000592565571818684,-3.14263303328733e-05,-7.69185760909099e-05
-0.00151822576035415,0.000584363972208737,-1.41502946588972e-06,-8.59172598407518e-05
-0.00148276099459892,0.000578951870140545,3.36450748181921e-05,-9.06704455450099e-05
-0.0014503479868381,0.000578463112024254,6.53431810835515e-05,-9.18601064851579e-05
-0.00142812737394138,0.000579488311975498,8.53481112787289e-05,-9.27256732544457e-05
-0.00142129668124298,0.000576138530739458,9.20743158255209e-05,-9.51601177981023e-05
-0.00142215498817891,0.000575172935436543,9.05067376058959e-05,-9.74853558093933e-05
-0.00142593392288291,0.000578439270164923,8.56737845084647e-05,-9.61751819785015e-05
-0.00143160828540375,0.000584924255903021,7.88411275185966e-05,-8.96140453972878e-05
-0.00143995293616968,0.000596535241397336,7.04281648321251e-05,-7.95872351313466e-05
-0.00144585379635416,0.000609028375686906,6.29208668275217e-05,-6.89192855496017e-05
-0.00145126589842235,0.000620377100728577,5.83954240517049e-05,-5.84304251441485e-05
-0.00145207652163962,0.000633180179189454,5.55495971173629e-05,-4.69641769227199e-05
-0.00145549782845365,0.000648903885418408,5.18706908939898e-05,-3.39264396584729e-05
-0.00146036156775722,0.000662553349885544,4.69593685754222e-05,-2.04288053541186e-05
-0.00146615513957471,0.000678527395637476,4.10747127627634e-05,-7.22152581101281e-06
-0.00147373685084205,0.000695180934380348,3.22604405757821e-05,7.59991815690072e-06
-0.00148681411068524,0.000715351147374579,1.84745455763402e-05,2.71067631669538e-05
-0.00150473126797266,0.000742757364675842,1.82975493505099e-06,5.10839695374298e-05
-0.00151865491382211,0.000767004535615714,-1.26607422769738e-05,7.42958185763603e-05
-0.00152640351810476,0.000785052823129464,-2.24326299330162e-05,9.07874129690756e-05
-0.00153421172703574,0.000796890306287426,-2.84600986002185e-05,9.96679824553638e-05
-0.00153685817342151,0.000803864050141814,-3.11641122002851e-05,0.000105083596015276
-0.00153361568055246,0.000810694742840215,-2.88599646279565e-05,0.000110500643152738
-0.00152599820649613,0.000818061877373569,-2.14522265792773e-05,0.000115109339628429
-0.00151864299289244,0.000821471263257936,-1.28207524051051e-05,0.000116667155575263
-0.00151320704896492,0.000822007705092889,-7.71168752486124e-06,0.000115608180366655
-0.0015126944489893,0.000822901774817811,-7.76255610404218e-06,0.000114345682055599
-0.00151711711389524,0.000824987937509294,-1.15239325120227e-05,0.000114027956556286
-0.0015233040763917,0.000826394607209838,-1.65682929571123e-05,0.000114347786588526
-0.00152602204835546,0.000830030490757852,-2.04151321080621e-05,0.000115485057896466
-0.00152744063898567,0.000834024002195835,-2.11491373467954e-05,0.000117305298099609
-0.00152657041112008,0.000834441234734132,-1.88030044900129e-05,0.000116772722537419
-0.00152226695551079,0.000829160262892262,-1.52813347323232e-05,0.000109143097714146
-0.00151947745796904,0.000815057803097832,-1.19312699107824e-05,9.27018097423726e-05
-0.00151667603949762,0.000793659734348043,-8.21184117434242e-06,7.04230028866323e-05
-0.00151298055130127,0.000771737144692966,-3.60373959543072e-06,4.64651936709786e-05
-0.00150855788639533,0.000750339075943176,5.71298053833478e-07,2.32595774724069e-05
-0.00150669822136749,0.00073168282101648,2.69379535743007e-06,2.76082837221138e-06
-0.00150820025850536,0.000718283696072322,3.30407909205436e-06,-1.22691462938249e-05
-0.00150723466320244,0.000710630459226993,4.45218734631428e-06,-2.05694445356085e-05
-0.0015043021145047,0.000709021133722134,6.93293808608263e-06,-2.47497644755427e-05
-0.0015031577052568,0.00070663694778901,9.47518154194173e-06,-2.94271611570532e-05
-0.00150412330055972,0.000697958510992438,1.0632302928991e-05,-3.73913999862299e-05
-0.00150369414709175,0.00068945888814085,1.03725610675387e-05,-4.84149570928863e-05
-0.00150486239819899,0.000679802935111698,9.51626784127093e-06,-6.07238885461401e-05
-0.00150828370501302,0.000667965451953736,8.3623117372307e-06,-7.2521130317128e-05
-0.0015111685699921,0.000658261815205921,6.4327135624114e-06,-8.3063309243652e-05
-0.00151400575125252,0.000651109257406548,3.37484986979781e-06,-9.32232943111068e-05
-0.00151896485799342,0.000641155281135755,-4.54649248305129e-07,-0.000103829902182087
-0.00152487763910756,0.000632941760596142,-4.68933830171916e-06,-0.000112621881743885
-0.00153114804811168,0.000632572211776508,-9.90609945475935e-06,-0.000114808047095762
-0.00153838405241871,0.000640440025355817,-1.6917957944921e-05,-0.00010855793429636
-0.00154740819617559,0.000650823155094573,-2.4762506750085e-05,-9.84364803858048e-05
-0.0015545130702563,0.000660109559304092,-3.04653988239756e-05,-9.10522824659279e-05
-0.00155757674918036,0.000663805047500434,-3.19073451629338e-05,-8.82863486877253e-05
-0.00155614623762049,0.00066564087066894,-3.03630093440722e-05,-8.7202927446789e-05
-0.00155569324229319,0.000668513814718355,-2.89752523638774e-05,-8.56164416090268e-05
-0.00155799398171866,0.000671672861079744,-2.8963107873669e-05,-8.43719090398002e-05
-0.0015582562421713,0.00067160133550175,-2.84752372291884e-05,-8.38434961400758e-05
-0.00155563363764487,0.000675654451588061,-2.49679270596039e-05,-8.14643482294262e-05
-0.00154873141936847,0.000684535544188949,-1.74915171884794e-05,-7.44438501465722e-05
-0.00154075631742217,0.000695800822722961,-6.8342689722002e-06,-6.31462943941641e-05
-0.00152976522027047,0.000709247631385781,4.99865561354592e-06,-5.02731192900724e-05
-0.00151999005794466,0.000723171277235226,1.50265803661233e-05,-3.77192782162648e-05
-0.00151646146276363,0.000737583681200962,2.03115610631027e-05,-2.51052058387332e-05
-0.00151897677892308,0.000751483485191076,1.96664135156656e-05,-1.02539135289658e-05
-0.00152554521116884,0.000772643135347553,1.42551442119888e-05,9.73192896061661e-06
-0.00153324613173283,0.000801193761896715,6.7358375873302e-06,3.65609955582871e-05
-0.00154174575458442,0.000833308746415898,2.86732735155043e-07,6.84377213223297e-05
-0.00154613265670137,0.000864434293772834,-2.28422887624307e-06,9.98758632397195e-05
-0.00154428491260319,0.000890350394865894,1.77883199998555e-07,0.000124487925221188
-0.00153871783844935,0.000905275398807251,6.82186704523589e-06,0.000138014745714139
-0.00153062352720639,0.000905966812727857,1.63699819272386e-05,0.000139477625459197
-0.00152087220673991,0.000898110920078213,2.80778357737945e-05,0.000131415722293007
-0.00150963077006523,0.000888323836822738,3.98648760042158e-05,0.000119524961201735
-0.00150333651920179,0.000877630762912676,4.71218153002692e-05,0.000109739700949491
-0.00150598296558755,0.000871515325994213,4.64141313376734e-05,0.00010354232511539
-0.00151323089082425,0.000865793279754715,4.01738644961092e-05,9.68649821328638e-05
-0.00151966819284369,0.000854492238431706,3.47191812887635e-05,8.50439484468716e-05
-0.00152252921596344,0.000836527397425616,3.31092572511805e-05,6.81568157575335e-05
-0.00152392396473431,0.000819563914511437,3.26674992090918e-05,5.03314253280886e-05
-0.00152798900175029,0.000804853487304061,3.01315130510359e-05,3.51704499581252e-05
-0.00153286466198353,0.000793111371583424,2.60399482457682e-05,2.40353194545535e-05
-0.00153729924781914,0.000786554860267333,2.25578092397983e-05,1.78255381585622e-05
-0.00154068479184418,0.000786566781196998,1.99977477989704e-05,1.70319981361192e-05
-0.00154430875446253,0.000788199948561188,1.77765033840146e-05,1.90976354977128e-05
-0.00154656181016933,0.000786757516071648,1.64293664145916e-05,1.85355660817184e-05
-0.00154699096363729,0.000780713604731178,1.60606964327695e-05,1.19561373691159e-05
-0.00154954204258573,0.000770378158711085,1.45527783525666e-05,1.87315869967803e-06
-0.00155605087018316,0.000761044070782904,9.94463068617381e-06,-6.38062555440418e-06
-0.00156171331177433,0.000756776377962612,3.27940244888657e-06,-1.10125838432184e-05
-0.00156941423233832,0.000751996085166698,-3.38155505520182e-06,-1.5410978684605e-05
-0.00157784232961192,0.000742375894926542,-1.04973420730894e-05,-2.3626568565956e-05
-0.00158692607801712,0.000730907960588214,-1.9868816945417e-05,-3.58049540554245e-05
-0.00159846553793344,0.000717520756573722,-3.08765983955468e-05,-4.84214119664603e-05
-0.00160855064443056,0.000706779998944998,-4.08407279019725e-05,-5.77091709260013e-05
-0.00161708603007114,0.000702726882858687,-4.87124634721917e-05,-6.21090366138905e-05
-0.00162395248555854,0.000701987785219418,-5.54747002488998e-05,-6.2311229158044e-05
-0.00162901888066643,0.000702977222381665,-6.0773029094108e-05,-6.01944412562812e-05
-0.00162976989923536,0.000704658073464517,-6.19797263791937e-05,-5.78451714808215e-05
-0.00162676582495963,0.000705301803666461,-5.7434102959509e-05,-5.67288368517806e-05
-0.0016164422998692,0.00070481304555017,-4.86296824350353e-05,-5.69745571716081e-05
-0.00160589227711512,0.000703084510748655,-3.85465435131829e-05,-5.73493876205891e-05
-0.0015974045751932,0.000702917617733336,-2.94317769538652e-05,-5.65547221183608e-05
-0.00159012088716751,0.000704300445574549,-2.24518711991584e-05,-5.51546220283269e-05
-0.00158381471537439,0.000702929538663002,-1.76047218200094e-05,-5.57319881729259e-05
-0.00157936820860912,0.000697696250539795,-1.34498814232458e-05,-5.97270027055739e-05
-0.00157450446930554,0.000692558329853912,-8.58550513326625e-06,-6.36876868110627e-05
-0.0015689731579407,0.000696194213401926,-3.69471691097244e-06,-6.02611970216049e-05
-0.00156383523725481,0.000710821194101643,-3.66079081746012e-07,-4.47443939533602e-05
-0.00156078347926041,0.000732994123279698,2.09466084439383e-06,-2.05055944726291e-05
-0.00155707607013441,0.000756955191907596,6.03050608365834e-06,3.37090557057546e-06
-0.00155087718670828,0.0007724881632619,1.08969672864425e-05,1.98745473131198e-05
-0.00154654988923966,0.000780677841942182,1.23819367640233e-05,2.87204582092607e-05
-0.00155159244248822,0.000784325646419862,8.05353923673672e-06,3.39856656396658e-05
-0.00155782708870334,0.00078814034391286,1.54175846752904e-06,3.9048374294982e-05
-0.00155737409337605,0.000793635892488712,-1.58305067628831e-06,4.40282325709354e-05
-0.00155588397716784,0.000794065045956674,-6.0054309370888e-07,4.62607232134721e-05
-0.00155463227955295,0.000788164185772192,6.39108165593837e-07,4.24028222423234e-05
-0.00155310640055575,0.000777185009550155,3.40657321668563e-08,3.152942419241e-05
-0.00155128249831691,0.000762510345131775,-6.63150053559282e-08,1.71362020539358e-05
-0.00154738435431626,0.000747454210964096,2.7954482425738e-06,4.93665146248162e-06
-0.001542651745239,0.000739920183415424,6.77407035167029e-06,-2.10025413512071e-06
-0.00154011258722023,0.000735557123157807,7.47786060446017e-06,-5.36841649802104e-06
-0.00154253253594235,0.000732755704686386,3.1482649210135e-06,-7.01769024941592e-06
-0.00154776582406556,0.00073121790475952,-3.28328590281607e-06,-7.06779031856348e-06
-0.00155038842859199,0.000730681462924568,-7.11483798841086e-06,-5.51223705252817e-06
-0.00154838571240817,0.000730967565236542,-6.23528890464082e-06,-4.76458080465287e-06
-0.00154235372199736,0.000727200551462206,-2.73673031730629e-06,-7.10676043714093e-06
-0.00153864631287136,0.00072084669595043,-3.98167022686342e-07,-1.09851042411501e-05
-0.00153840789427804,0.000718069119338341,-3.79123459757114e-07,-1.28633978851918e-05
-0.00153558263394729,0.000716912789160775,3.0940065790457e-07,-1.21745566353466e-05
-0.00152816781569527,0.000716161770591841,5.35078161622665e-06,-1.13636614884204e-05
-0.0015184164952288,0.000715088886921935,1.44754596962002e-05,-1.09397949165601e-05
-0.00150868901662165,0.000715792221772207,2.36007604585291e-05,-7.52258813743684e-06
-0.00150009402633274,0.000724172635327139,2.97637456516029e-05,2.1159947407305e-06
-0.00149382361732862,0.000737929388161265,3.41886503919612e-05,1.69395254661242e-05
-0.00148842343619009,0.000750017210842205,3.94497097899967e-05,3.22030146554631e-05
-0.0014811755109534,0.000758516833693792,4.52461108213138e-05,4.26501527482691e-05
-0.00147577532981487,0.000760042712690992,4.89775634111031e-05,4.55077631002352e-05
-0.00147323617179609,0.000756299540775987,4.96339773544873e-05,4.29470825447597e-05
-0.00147440442290332,0.00075079207127047,4.86885347610283e-05,4.19399065886453e-05
-0.001474309055466,0.000756907508188934,4.71220706016221e-05,4.8644888442504e-05
-0.00147588261818186,0.000768566177401911,4.40163201523828e-05,6.13390249671113e-05
-0.00147981652497152,0.000774419353867731,3.88568242508161e-05,7.08914272898346e-05
-0.00148576506887466,0.00077085499589771,3.28722551503706e-05,6.96577923200262e-05
-0.00149073609654523,0.00075923208947373,2.65547209832849e-05,5.84928816954505e-05
-0.00149773368225894,0.000742721601886845,1.78805479602285e-05,4.44865204279667e-05
-0.00150996455609587,0.000729370160661349,5.29716360156308e-06,3.42034382275935e-05
-0.00152380475543766,0.000723767323718507,-8.77516795322762e-06,3.01653203169779e-05
-0.00153332957824049,0.000724291844623795,-1.99424606164725e-05,3.09443821906953e-05
-0.00153942117329962,0.000721538109871036,-2.66771029303934e-05,3.21615421444782e-05
-0.00154311666149596,0.000717139286824422,-3.0703353749506e-05,2.91690727914683e-05
-0.00154488095908648,0.000708687347691497,-3.32387068857748e-05,2.12269484293111e-05
-0.00154541740092143,0.00069702867847852,-3.42213647017744e-05,1.20939730698587e-05
-0.00154585847531906,0.00068848137190827,-3.56378568239913e-05,4.96202842515553e-06
-0.00155175933550354,0.000680053274634676,-4.17461088207275e-05,-1.62859353638628e-06
-0.00156345376750551,0.000670671502987832,-5.3654658840606e-05,-1.10656602170741e-05
-0.00157568464134244,0.000655770340905806,-6.6111998941093e-05,-2.35765596093388e-05
-0.00158038148763069,0.000642764606640613,-7.23125072152553e-05,-3.59800755815886e-05
-0.0015795470225541,0.00063261989549517,-7.04919696951875e-05,-4.50185838340645e-05
-0.00157254943684038,0.000628805198002171,-6.36286112105245e-05,-4.88046581754109e-05
-0.00156219014896096,0.000629997290968733,-5.4305258772103e-05,-4.66059755136936e-05
-0.00155055532160731,0.000635910072082881,-4.28509421174982e-05,-3.98340141574773e-05
-0.0015385271035747,0.0006444335367938,-2.96457447179512e-05,-3.20241356454376e-05
-0.00152411469960896,0.000650608578360592,-1.58065666523991e-05,-2.52281876518782e-05
-0.00150872477941065,0.000659060517493517,-1.19560620513522e-06,-1.75600393992094e-05
-0.00149321564991567,0.000668990651904979,1.52822897043815e-05,-6.90563670525411e-06
-0.00147693165999244,0.000681626837350537,3.21255375515926e-05,4.36155123098024e-06
-0.00146473654894451,0.000690090697413128,4.40188124688455e-05,1.16112350127086e-05
-0.00146266230718269,0.000692021888018959,4.57994983897941e-05,1.38397001458682e-05
-0.00147283086018746,0.000693726580961143,3.69924109646821e-05,1.37516764422538e-05
-0.00148826846410444,0.00069414381349944,2.20336067715115e-05,1.25946286291081e-05
-0.00150285968201516,0.000691759627566315,7.2209376860866e-06,8.6613413243672e-06
-0.00151287326293428,0.000684690516274602,-2.24260355591522e-06,7.06088262304729e-07
-0.00151590117906935,0.000675833265533046,-4.15796558662845e-06,-1.0974623626163e-05
-0.0015127302117783,0.000662338773151563,-1.06517625774982e-07,-2.67577825140358e-05
-0.00150665053764883,0.000643682518224866,5.96646523745186e-06,-4.66176519865753e-05
-0.00150265702621085,0.00062714818877865,1.07947525039417e-05,-6.63668486130285e-05
-0.00150141724952562,0.000616622007883907,1.33960511794277e-05,-7.995947987089e-05
-0.00150184640299358,0.000611257589534377,1.39839158225226e-05,-8.74617484436603e-05
-0.00150365838430276,0.000604712999147952,1.27597696937029e-05,-9.62215621939905e-05
-0.0015062094632512,0.000594830548455152,1.05332723335513e-05,-0.000111167836378575
-0.00150985726772888,0.000580859218887044,9.32528855572865e-06,-0.000127437385690303
-0.00150935658868292,0.000574755702898246,1.09669215057177e-05,-0.000135630659218341
-0.00150496968656598,0.000583779846655121,1.52655196696423e-05,-0.000131230545929665
-0.0015016318262596,0.00060420039917233,2.02276776898312e-05,-0.000115752281052666
-0.00150034436585572,0.000628900565439496,2.3885331946273e-05,-9.22624910740986e-05
-0.00149986752866909,0.000659775773273454,2.55543744183369e-05,-6.47440467556324e-05
-0.00149948605891979,0.000691556971762,2.57126246878571e-05,-3.98837766737573e-05
-0.00150269278899984,0.000709652942994412,2.49892503726696e-05,-2.37396727059806e-05
-0.00150767573760007,0.000719523472757546,2.29617355182007e-05,-1.58416093606842e-05
-0.00151203879785769,0.000732100053554776,1.80370389497769e-05,-1.00467881734968e-05
-0.00152264842526009,0.00074349646231511,9.37692493995267e-06,-1.61375975841872e-06
-0.00153534421535398,0.000757682368617199,-9.65951699436707e-07,9.45938145524039e-06
-0.00154500016838313,0.000774049805048096,-8.98633366311912e-06,2.18205124289231e-05
-0.00154960164723406,0.000791907357687196,-1.2320247052093e-05,3.54694697885899e-05
-0.0015506268471853,0.000809681463818637,-1.20030987760813e-05,4.98721581698413e-05
-0.00155129441924658,0.000826704551381144,-1.03697558594826e-05,6.27969577476092e-05
-0.00155135402389491,0.00084027056934062,-8.59311958737167e-06,7.34686021496812e-05
-0.00155168780992554,0.000855100205844653,-6.9911680437481e-06,8.51384535103659e-05
-0.00155102023786427,0.000876736693187755,-6.10305399322263e-06,0.000102170274852756
-0.00155383357726536,0.00090266471521048,-5.89790235929516e-06,0.000124706444527245
-0.00155563363764487,0.000925791318761785,-4.99522623104186e-06,0.000147027356065003
-0.00155273685173612,0.000944268759743497,-2.42091839647861e-06,0.000160906018212075
-0.00155209312153418,0.000948357638618805,5.26518929786774e-07,0.000160755422240744
-0.00155296334939977,0.000935483034579935,1.96120301388826e-06,0.00014702340960864
-0.00155442962374864,0.000915658528546007,2.57934030931846e-06,0.000125617153334233
-0.00155206927967484,0.000898492389827513,5.15238969767014e-06,0.000103632914365248
-0.00154845723798616,0.000882160716185612,1.0579993417079e-05,8.51496031151615e-05
-0.00154585847531906,0.000867879442446198,1.6127882882636e-05,7.08391477039644e-05
-0.00154418954516587,0.000859868577710901,1.829666212589e-05,6.01832409991801e-05
-0.00154732474966793,0.000854969075618331,1.63750520683449e-05,5.22629098225541e-05
-0.00155289182382177,0.00084851985266923,1.26157839871134e-05,4.4905572576026e-05
-0.00155695686083775,0.000839376499615699,9.80131066061654e-06,3.54576966897165e-05
-0.0015593648886302,0.000829231788470256,9.16832200789925e-06,2.32283994559112e-05
-0.00155926952119288,0.000817096282070654,1.00331200196525e-05,9.88493256917375e-06
-0.00155886420958425,0.00080531840356102,1.08944094010439e-05,-2.87679875040545e-06
-0.00156049737694844,0.000793361711106402,1.10477753306426e-05,-1.46644662013507e-05
-0.00156310806054521,0.000783216999960959,1.09468094924458e-05,-2.53051022487172e-05
-0.00156154641875901,0.000775611446834293,1.06197380502464e-05,-3.42809176038575e-05
-0.00156502733022137,0.000767982051848295,8.51083542150871e-06,-4.17465297466546e-05
-0.00157325277169065,0.000760746047541263,3.12726337888249e-06,-4.83389553330931e-05
-0.00158084640388765,0.000755083605950094,-4.65909026560864e-06,-5.34804643404101e-05
-0.00158708105010277,0.000754094168787847,-1.26189508164472e-05,-5.5937988818481e-05
-0.00159741649612287,0.000751698061925057,-2.03099191344359e-05,-5.6814944790848e-05
-0.00160764465377597,0.000747847601643062,-2.91624833768276e-05,-5.94942407995164e-05
-0.00161566743944093,0.000741851374021254,-3.89908267185847e-05,-6.50583645237107e-05
-0.00162333259721593,0.000736653848687044,-4.66115703687101e-05,-7.00915963783022e-05
-0.00162788639234819,0.000734734579010879,-4.92366041472613e-05,-7.1177897730297e-05
-0.00162562141571173,0.000733304067451004,-4.76748661400611e-05,-6.95312849062631e-05
-0.00162210474146037,0.000734436555769238,-4.48063666538414e-05,-6.84467734337461e-05
-0.0016198040020349,0.000734543844136229,-4.22893381595803e-05,-6.77961775756902e-05
-0.00161733636959412,0.000735652490595132,-4.03605090065652e-05,-6.43859907733735e-05
-0.00161718139750847,0.000740325495024055,-3.95608365635338e-05,-5.69644095912151e-05
-0.00161722908122713,0.000749301955062267,-4.03469247900457e-05,-4.73899232478147e-05
-0.00161588201617491,0.000759267852262727,-4.12420120058333e-05,-3.70076346750514e-05
-0.00161542902084762,0.000766742275163071,-3.94129391678189e-05,-2.56040777812698e-05
-0.00160976657925645,0.000775015400351012,-3.37701029629356e-05,-1.47508890235933e-05
-0.001599693393689,0.0007816076744561,-2.66424123341413e-05,-8.47945466389663e-06
-0.00159462699858111,0.000779044674577992,-2.18788079960984e-05,-8.45142445034343e-06
-0.00159441242184713,0.000772273586527919,-2.12030126166586e-05,-1.09273720356622e-05
-0.00159419784511315,0.000771224544717344,-2.19825303974153e-05,-1.09466649171726e-05
-0.00158797511982769,0.000773072288815516,-1.87413324886377e-05,-7.98652719575988e-06
-0.00157748470172195,0.000771629856325975,-8.15992125727884e-06,-5.29991302096491e-06
-0.0015624881722026,0.000769448326197167,7.09992941604607e-06,-4.83384426635156e-06
-0.0015457392660224,0.000767540977450667,2.1028329310113e-05,-5.1543307661072e-06
-0.00153417596424675,0.000766134307750124,3.09484544236251e-05,-3.93462339229225e-06
-0.00152634391345643,0.000766050861242465,3.91681992706016e-05,-3.08397592358397e-07
-0.00151635417439664,0.000769448326197167,4.72326342973999e-05,5.51820308611368e-06
-0.00150945195612025,0.000775229977084993,5.22760729075443e-05,1.33102517169532e-05
-0.00150855788639533,0.000780379818700541,5.20509020958232e-05,2.24562107883023e-05
-0.00150949963983891,0.000785982655643383,5.03770054420453e-05,3.09582334224981e-05
-0.00150465974239467,0.000788629102029151,5.29382401894333e-05,3.55129670431944e-05
-0.00149731644972065,0.000782227562798712,5.924667410051e-05,3.35122131271409e-05
-0.00149126061745051,0.000771713302833635,6.3584442291307e-05,2.58301351407418e-05
-0.00149124869652085,0.000760424182440292,6.30176843372291e-05,1.72076038449887e-05
-0.00149180898021513,0.000752365633986332,5.92309715008775e-05,1.24198648082284e-05
-0.00149818667758624,0.000747609183049749,5.2745936789377e-05,1.19235412005881e-05
-0.00150799760270104,0.000745606466865925,4.17070321542122e-05,1.26656689293528e-05
-0.00151867875568144,0.000743401094877785,2.80181053401721e-05,1.29767691390715e-05
-0.00152729758782968,0.000740158602008736,1.83922309129616e-05,1.4226054004355e-05
-0.00152968177376281,0.000738954588112508,1.57143855455172e-05,1.70718646721499e-05
-0.00152845391800725,0.000739312216002477,1.42207616290661e-05,1.90873077506875e-05
-0.00153343686660748,0.000733947797652948,7.36978903771957e-06,1.79953577914879e-05
-0.00154339084287827,0.000726330323596616,-3.45995533574478e-06,1.48296912017037e-05
-0.00155141362854324,0.000720596356427452,-1.2304878320886e-05,1.16880386287139e-05
-0.00155317792613375,0.000714576286946314,-1.66792123145777e-05,8.79402891728129e-06
-0.00155193814944852,0.000707936329122563,-1.7169221568422e-05,6.56851004838679e-06
-0.00154668101946598,0.000706017059446398,-1.2578109364585e-05,7.98250506243129e-06
-0.0015358568153296,0.000709247631385781,-2.450809869179e-06,1.45913708594399e-05
-0.00152294644850173,0.00071363453350273,6.85934638953753e-06,2.17366453932086e-05
-0.00152362594149267,0.000709843677869062,5.94121481263486e-06,2.26699048365907e-05
-0.00153516540140899,0.000701904338711759,-6.34703360949968e-06,1.75206601142404e-05
-0.0015469194380593,0.000695288222747339,-2.0471235089352e-05,1.36921314237399e-05
-0.00155217656804184,0.000694525283248739,-2.69895657465436e-05,1.67175559324622e-05
-0.00155000695884269,0.000699090999310672,-2.57718844019743e-05,2.50333625559293e-05
-0.00154552468928842,0.000707042259397641,-2.29076938732382e-05,3.47845530451894e-05
-0.00154415378237687,0.000713479561417077,-2.24280807216859e-05,4.49729835632122e-05
-0.00154402265215055,0.000720810933161433,-2.38708440794746e-05,5.5394337521991e-05
-0.00154441604282952,0.000726687951486585,-2.5678110254166e-05,6.3633510473229e-05
-0.00154621610320902,0.000728082700257462,-2.81946687569237e-05,6.76254815799587e-05
-0.00155071029369296,0.000726294560807619,-3.3581963217717e-05,6.85452786719755e-05
-0.00155808934915598,0.000723552746984526,-4.33222471301824e-05,6.81090403206214e-05
-0.00157034406485224,0.000718510193735969,-5.50385107351143e-05,6.53794271641783e-05
-0.00157561311576445,0.000710439724352343,-6.24569912082398e-05,5.91576803385339e-05
-0.00157322892983132,0.000701117557353828,-6.07794727135025e-05,5.09933578460157e-05
-0.0015640140511998,0.000689125102110213,-5.21536165495211e-05,4.2272633119335e-05
-0.00155484685628693,0.000676548521312983,-4.37182551408714e-05,3.04693748369285e-05
-0.00154895791703212,0.00065921548957917,-4.0277826381355e-05,1.24520243255934e-05
-0.00155105600065327,0.000632929839666476,-4.09599884396371e-05,-9.70604282560736e-06
-0.00155099639600494,0.000612652338305255,-4.23799332291666e-05,-3.03320841934403e-05
-0.00154889831238379,0.000596737897201651,-4.19034698279105e-05,-4.6894600825152e-05
-0.00154474982886015,0.000581157242128685,-3.78147531780366e-05,-6.10292154346075e-05
-0.00153689393621051,0.000568199191582155,-2.97310116509912e-05,-7.30983873197885e-05
-0.00152568826232483,0.000562417540694329,-1.9586133122455e-05,-8.04083239707047e-05
-0.00151424416984583,0.000560081038479867,-9.37951901525267e-06,-8.22464264906682e-05
-0.00150264510528118,0.00056061748031482,2.27582480322906e-06,-8.29617391681289e-05
-0.00148766049669149,0.000556159052619878,1.81939630764295e-05,-8.76168938082795e-05
-0.00146693000000298,0.000547552141401299,3.72720127237991e-05,-9.63898776522082e-05
-0.00144840487530261,0.000542843374183379,5.51259885865151e-05,-0.000104749164069532
-0.00143421896900052,0.000540387662672261,7.02859712181966e-05,-0.000107745861610152
-0.0014200092208391,0.000544273885743254,8.47370251768141e-05,-0.000103411517404225
-0.00140639551916096,0.000558459792045342,9.70826914524334e-05,-9.38029481067853e-05
-0.00140280731933161,0.000570845637967922,0.000101026493299762,-8.38217607051078e-05
-0.00141001948177931,0.000577914749259636,9.39663511427127e-05,-7.76386591982708e-05
-0.00142320402998948,0.000581562553737316,8.22572142877959e-05,-7.53355397261175e-05
-0.0014298559087429,0.000589513813824285,7.37846390031736e-05,-7.37811322368257e-05
-0.00143518456430343,0.000594258343831202,6.91944876779489e-05,-7.05477096835283e-05
-0.00144115695006591,0.000600290334242006,6.47396644195812e-05,-6.55160875013261e-05
-0.00144572266612784,0.000611352956971702,5.98811001869617e-05,-5.94091939811599e-05
-0.00144914397294187,0.000622653998294711,5.64054064140123e-05,-5.34640373358362e-05
-0.00145398387038612,0.000626611746943697,5.24685576161115e-05,-5.02710532281121e-05
-0.0014636994280636,0.000629377402626121,4.35900882947994e-05,-5.12008670726978e-05
-0.0014788509296686,0.000634503402382338,2.90255367682971e-05,-5.18768306028002e-05
-0.00149587401723111,0.000645995178579997,1.24282824032141e-05,-4.38759916858298e-05
-0.00151201495599836,0.000669026414693976,-3.35084790412888e-06,-2.34453766575751e-05
-0.00152803668546895,0.000701332134087809,-1.78977294214598e-05,3.78423556850174e-06
-0.00154168614993609,0.000730490728049918,-3.03945418709252e-05,2.88175273878448e-05
-0.00155078181927096,0.000754094168787847,-3.97621959853787e-05,4.74646511502159e-05
-0.00156010398626947,0.000769436405267501,-4.76498195466137e-05,6.00113547725383e-05
-0.0015703917485709,0.000779879139654585,-5.6972987439521e-05,6.57874048955515e-05
-0.00158249149218151,0.000782144116291053,-6.68834255964853e-05,6.30286771927008e-05
-0.00158724794311809,0.000777590321158786,-7.27301919120582e-05,5.41813430156131e-05
-0.00158787975239037,0.000773990200399768,-7.15141282625457e-05,4.7405648032385e-05
-0.00158312330145379,0.000782358693025034,-6.44416122636394e-05,5.10187503742745e-05
-0.00157352695307296,0.000803399133884855,-5.43078986194229e-05,6.77021144219613e-05
-0.0015628338791629,0.00083498959749875,-4.36986182263622e-05,9.41542637885116e-05
-0.00155694493990808,0.000866973451791611,-3.54725676186904e-05,0.00012399762658621
-0.0015548945400056,0.000896954589900648,-3.127013614798e-05,0.00014988772150088
-0.00155330905636007,0.000918543393525087,-2.94118965714982e-05,0.000164959201214252
-0.00155168780992554,0.000920665319005568,-2.75596688413711e-05,0.000165323000469167
-0.00155408391678833,0.000910937840398421,-2.68296212370891e-05,0.000152448282390145
-0.0015582920049603,0.00089594131087907,-2.92059557514497e-05,0.000132416279073317
-0.00156006822348048,0.00087884669773857,-3.16640627546355e-05,0.000111487062494958
-0.00155888805144358,0.000861513666004757,-2.82586927612052e-05,9.17493679887803e-05
-0.00155144939133223,0.000844883969121216,-1.85152762423326e-05,7.16360988226896e-05
-0.00154287824290265,0.00082701449555245,-8.36274356417297e-06,5.08850778186131e-05
-0.00153584489439993,0.00081424717988057,-1.67756246927941e-06,3.31632731713794e-05
-0.00153354415497447,0.000803959417579139,3.60683934992135e-06,2.18190648414345e-05
-0.00152952680167716,0.000799202966642557,9.46518066305563e-06,1.44286745747394e-05
-0.00152590283905881,0.00079380278550403,1.38757059790875e-05,5.00432902104451e-06
-0.00152598628556647,0.000782835530211659,1.57169201147109e-05,-8.27838792553674e-06
-0.00152473458795158,0.000771772907481963,1.79478487909275e-05,-2.11817148559011e-05
-0.00152307757872805,0.000764966056642893,2.2237128682426e-05,-3.01930365391475e-05
-0.00152163514623851,0.00076078181033026,2.53216870618069e-05,-3.72064736790159e-05
-0.00152308949965772,0.000754594847833803,2.4613040102485e-05,-4.51189814034023e-05
-0.00152658233204975,0.000749719187600564,2.26974891482745e-05,-5.26108235489473e-05
-0.00153025397838676,0.0007455110994286,2.19602617950857e-05,-5.7130296989457e-05
-0.00153443822469939,0.000744736239000335,1.96324353251425e-05,-6.01875685208038e-05
-0.00154011258722023,0.00074292425769116,1.36382714757299e-05,-6.48333551509879e-05
-0.00154718169851194,0.000739193006705821,8.91192514956052e-06,-6.9395227942624e-05
-0.00154947051700774,0.000738728090448862,1.10175129621846e-05,-6.91254568595848e-05
-0.00154314050335529,0.000746929690058809,1.63516534922616e-05,-6.43989789044177e-05
-0.00154483327536781,0.000750970885215454,1.59776950464782e-05,-6.24131015421665e-05
-0.00155621776319848,0.000743246122792132,7.96323109343625e-06,-6.89157320143248e-05
-0.00156776914404447,0.000730991407095874,-9.2810669048816e-07,-8.14869712875401e-05
-0.00157130966015516,0.000723540826054861,-5.46681954173363e-06,-9.27027208722445e-05
-0.00157593498086542,0.000718629403032625,-7.29006492846457e-06,-9.72999090635385e-05
-0.00158079872016899,0.000720477147130796,-9.4071791145356e-06,-9.45656739414642e-05
-0.00158402929210837,0.000730180783878612,-1.14243148403277e-05,-8.61317596412445e-05
-0.00158537635716059,0.000744032904150063,-1.18500972849364e-05,-7.38823163388116e-05
-0.00158597240364387,0.000758719489498108,-1.04209969574213e-05,-5.92208437060071e-05
-0.00158437499906868,0.000774061725977762,-6.68291012740414e-06,-4.28476721330695e-05
-0.00157952318069477,0.000792431878592484,-2.48045693424387e-07,-2.52203443893062e-05
-0.00157352695307296,0.000811624575354134,6.71662092494343e-06,-7.01813949641002e-06
-0.00157068977181254,0.000830543090733474,1.1397584151607e-05,1.16330044323024e-05
-0.00156770953939614,0.000848043015482605,1.53323620707724e-05,3.12090376104573e-05
-0.0015635968186615,0.000867080740158602,2.29139678624484e-05,4.9643678958616e-05
-0.00155130634017624,0.000879085116331882,3.40347081766008e-05,6.00092528149318e-05
-0.00154422530795487,0.000872480921297128,4.3218405422552e-05,5.54468892208691e-05
-0.00154190072667007,0.000853896191948425,4.75891463574047e-05,3.77836455047935e-05
-0.00154020795465755,0.000834214737070485,5.04692980143631e-05,1.7997154521583e-05
-0.00153576144789228,0.000822806407380486,5.45636707858093e-05,6.04899491477088e-06
-0.00153571376417361,0.000817692328553935,5.66349981778679e-05,2.63526672834785e-06
-0.00154098281508582,0.000815606165862451,5.2700771281138e-05,2.67524412414197e-06
-0.00154923209841443,0.000817477751819953,4.46414917831539e-05,3.70957938684351e-06
-0.00155688533525976,0.000820612956322012,3.75718853700356e-05,7.29284064043457e-06
-0.00156204709780497,0.000824070025925042,3.33637874952983e-05,1.38237481622943e-05
-0.00156567106042332,0.00082951789078223,3.03683357425426e-05,2.01379253112039e-05
-0.00156896123701103,0.000831973602293348,2.70998791069048e-05,2.27438583229194e-05
-0.00157407531583758,0.000828468848971656,2.2608854149057e-05,2.10870763659584e-05
-0.00158115634805896,0.000821745444640246,1.53553165532377e-05,1.7117003240417e-05
-0.00159115800804842,0.000816917468125669,5.41450973706907e-06,1.31260388309502e-05
-0.00160069475178091,0.000812590170657049,-3.85883718664612e-06,1.02098129002021e-05
-0.00160613069570844,0.000807666826705147,-9.95043739812291e-06,7.79883480762447e-06
-0.00161187658380726,0.000801813650239328,-1.55807990508039e-05,4.8225483088276e-06
-0.00161976823924591,0.000798797655033925,-2.53097306070827e-05,1.96563574298635e-06
-0.00163452635017194,0.000794088887816005,-3.86647275098586e-05,1.77889465753955e-06
-0.00164420614506043,0.000796377706311804,-5.03952555049158e-05,5.35380646160256e-06
-0.00165013084710424,0.000798714208526266,-5.74636390229797e-05,1.00705434776085e-05
-0.00165447006550253,0.000797486352770707,-6.25010151727121e-05,1.25131634670582e-05
-0.00166122923262294,0.000795471715657217,-6.98245877469561e-05,1.28566704757894e-05
-0.00166960964617787,0.000794446515705974,-8.03900841194635e-05,1.43358173332666e-05
-0.00167893181317638,0.000795221376134239,-9.10050105521119e-05,1.88419234091687e-05
-0.00168316374320768,0.000798451948073622,-9.67325090115344e-05,2.52006931951978e-05
-0.00167894373410605,0.000802016306043643,-9.43790320688308e-05,3.16533905574432e-05
-0.00166937122758455,0.000804412412906433,-8.57772068699881e-05,3.77718865062085e-05
-0.00165827284206586,0.000806617784894573,-7.74893157631024e-05,4.35019190241564e-05
-0.00165252695396703,0.000808131742962107,-7.50119641166336e-05,4.81837550297508e-05
-0.0016551376375638,0.000806534338386913,-7.69685566169622e-05,5.10861331137817e-05
-0.00165163288424211,0.000804019022227467,-7.66787061330084e-05,5.15073145183566e-05
-0.00164006958246646,0.000796663808623779,-6.92971096719603e-05,4.82933111663683e-05
-0.00162452469018249,0.000785613106823749,-5.55754761214973e-05,4.1132473484882e-05
-0.00160880098395353,0.000772702739995881,-3.90720385009096e-05,3.25862905820264e-05
-0.00158592471992521,0.000763571307872016,-2.2480899854021e-05,2.66212550266153e-05
-0.00156792411613012,0.000756812140751609,-7.41877448002502e-06,2.42675402531792e-05
-0.00155588397716784,0.000750827834059467,4.73742672728826e-06,2.27091965635851e-05
-0.00154337892194861,0.000743961378572069,1.37172518775299e-05,1.96174986259768e-05
-0.00153151759693131,0.000736820741702362,2.12017360783107e-05,1.61080086075165e-05
-0.00152131328113754,0.000729715867621652,2.96073834266622e-05,1.37372448528212e-05
-0.00150827178408335,0.000722718281907933,4.01335450451166e-05,1.06973816256121e-05
-0.00149408587778126,0.000712037128927537,5.18857967926793e-05,3.61456954619496e-06
-0.00148023375750981,0.000696229976190923,6.19873757094026e-05,-7.88407053073652e-06
-0.00147235402300084,0.000679409544432732,6.67638720379173e-05,-2.08400613380813e-05
-0.00147291430669512,0.000663638154485116,6.46523525132026e-05,-3.26287896812696e-05
-0.00147607335305651,0.000650203266751961,5.89057687581408e-05,-4.25900476035423e-05
-0.00147490510194928,0.000638628044046643,5.61271283548746e-05,-5.02791204249088e-05
-0.0014681697766882,0.00063022378863238,6.04335299485247e-05,-5.47041457372378e-05
-0.00145806082833176,0.000626361407420719,6.88976017941451e-05,-5.59085237946989e-05
-0.00145084866588406,0.000622975863395683,7.36378946086031e-05,-5.52748877217126e-05
-0.00145205267978029,0.000621497668117146,6.9101785369113e-05,-5.34680826425342e-05
-0.00146112450725582,0.000622236765756414,5.74515011740907e-05,-4.98089148992821e-05
-0.00147123345561227,0.000624978579579507,4.65207816400416e-05,-4.45727107183805e-05
-0.00147317656714777,0.000625658072570447,4.21324783753349e-05,-4.0265354737027e-05
-0.00146956452545908,0.000623953379628264,4.27139813422313e-05,-3.93419510984198e-05
-0.00146822938133653,0.000619888342612287,4.21675772574679e-05,-4.16878806511262e-05
-0.00147242554857883,0.00061408284986513,3.75461783425695e-05,-4.52373743562778e-05
-0.00147598990654885,0.000608074701313657,3.19815167864543e-05,-4.78205058199662e-05
-0.00147546538564356,0.000607562101338035,2.93323066543372e-05,-4.73729325735377e-05
-0.00147643098094648,0.000611960924384649,2.80887345872269e-05,-4.19286556760793e-05
-0.0014814854551247,0.000620114840275934,2.28726398409371e-05,-3.14440820368363e-05
-0.00149033078493659,0.000630557574663018,1.1228956301727e-05,-1.89781931060085e-05
-0.00150376567266975,0.000641715564830039,-3.30084663411916e-06,-8.11630615053274e-06
-0.00151592502092868,0.000649559536550017,-1.4872108588488e-05,6.75577747465345e-07
-0.00151953706261737,0.000656998196661365,-2.03470802186027e-05,9.54861721078403e-06
-0.00151959666726569,0.000666415731097205,-2.06392505398929e-05,1.93139810474913e-05
-0.00151770123944886,0.000674855749300465,-1.90453400437346e-05,2.79693478094557e-05
-0.00151654490927129,0.000682389776849137,-1.88865895043099e-05,3.37304975694215e-05
-0.00151979932307001,0.000684106390720987,-2.12925399177043e-05,3.77005919892641e-05
-0.00152255305782277,0.000689041655602554,-2.44453961946195e-05,4.20746003811699e-05
-0.00152378091357833,0.000696575683151226,-2.5880258075873e-05,4.65517759927327e-05
-0.00152369746707067,0.000697493594735479,-2.58261008783206e-05,4.81262355439034e-05
-0.00152666577855741,0.000694191497218102,-2.70293668468801e-05,4.46058324120134e-05
-0.00153002748072311,0.000688862841657569,-3.08417516961588e-05,3.72849819650983e-05
-0.0015339852293721,0.000683844130268343,-3.49958904414653e-05,2.93605269009478e-05
-0.00153754958734212,0.000676429312016327,-3.62320777503034e-05,2.19235694796967e-05
-0.00153572568510328,0.000668394605421698,-3.38584244505467e-05,1.24600338020255e-05
-0.00153113612718201,0.000657594243144646,-2.94425314323703e-05,-1.76611456168236e-06
-0.0015279174761723,0.000642573871765963,-2.40896248353916e-05,-1.88388919136205e-05
-0.00152300605315006,0.000631547011825264,-1.79211939899352e-05,-3.16551473614782e-05
-0.00151773700223786,0.000632226504816205,-1.20090623205844e-05,-3.30689430020873e-05
-0.00151610383487367,0.000647413769210206,-8.84249974639978e-06,-2.16027406888047e-05
-0.00151916751379773,0.000669455568161939,-9.89082623501895e-06,-2.34019007941399e-06
-0.00152362594149267,0.000690543692740422,-1.35217844287574e-05,1.65454945126704e-05
-0.00152808436918762,0.000704503101378864,-1.62650632238848e-05,2.75302849672395e-05
-0.00153015861094943,0.000707089943116304,-1.60315806896594e-05,2.60443285108343e-05
-0.00152878770403789,0.000696337264557914,-1.36596607737848e-05,1.23124034762219e-05
-0.00152839431335892,0.000678825418879117,-1.14492638504877e-05,-7.96590825126956e-06
-0.00153014669001977,0.000663900414937759,-1.07135836107065e-05,-2.64348932418059e-05
-0.00153174409459496,0.000657331982692002,-1.09448759864985e-05,-3.75354295239595e-05
-0.00153341302474815,0.000655484238593831,-1.09028599358563e-05,-4.16871433891495e-05
-0.00153489122002668,0.000657999554753277,-9.79162142513877e-06,-4.30107399737883e-05
-0.00153377065263812,0.000661349335989316,-7.12235186806901e-06,-4.43162338909557e-05
-0.0015305520016284,0.000662970582423841,-1.99483941081148e-06,-4.484106076073e-05
-0.0015244484856396,0.000669407884443276,6.61412726575089e-06,-4.28230639527004e-05
-0.00151391038381519,0.000677108805007267,1.84909586310078e-05,-3.94605265130782e-05
-0.00150372990988075,0.000680220167649994,3.13871262523005e-05,-3.89392352825224e-05
-0.00149446734753056,0.000679326097925073,4.20494038778835e-05,-4.34731859002215e-05
-0.0014906049663189,0.000678312818903495,4.84889570629059e-05,-4.89866093192482e-05
-0.00148930558498535,0.000683224241925731,5.1513085508026e-05,-4.78075010632351e-05
-0.00148867377571307,0.000696635287799554,5.37456021621203e-05,-3.64590503877446e-05
-0.0014891148501107,0.00071845058908764,5.64277092909429e-05,-1.91812428537844e-05
-0.0014891148501107,0.000738728090448862,5.71554194532168e-05,-2.71110655283088e-06
-0.00149687537532302,0.000755357787332403,5.19215370603428e-05,1.04972309410359e-05
-0.00151051291886049,0.000768566177401911,4.01545266532498e-05,2.21379691882713e-05
-0.00152599820649613,0.000785088585918461,2.6573201986457e-05,3.35427937472553e-05
-0.00153789529430242,0.000799608278251188,1.63953745667212e-05,4.49003112658189e-05
-0.00154658565202866,0.00081462864962987,9.26857148616485e-06,5.78737507124628e-05
-0.00155802974450766,0.000834107448703494,1.73053864972224e-07,7.4318569235814e-05
-0.00157287130194135,0.000854551843080034,-1.32878906254286e-05,9.12176472405022e-05
-0.00158776054309371,0.000867092661088268,-2.68846737401997e-05,0.000100792113362475
-0.00159779796587217,0.000866341642519333,-3.45866543351877e-05,9.81958671192445e-05
-0.0016000391006493,0.000857472470848111,-3.56744521765132e-05,8.68597630611306e-05
-0.0016004563331876,0.000848209908497924,-3.48041443174983e-05,7.41374087517845e-05
-0.00160356769583033,0.00083978181122433,-3.57681120594582e-05,6.37524198241309e-05
-0.00160611877477877,0.00083218817902733,-3.76329570885537e-05,5.46534765081859e-05
-0.00160734663053433,0.000825393249117926,-3.72398006085286e-05,4.49158564097437e-05
-0.00160491476088254,0.00081549887749546,-3.33299354297976e-05,3.34389590669362e-05
-0.00159988412856365,0.000803244161799202,-2.72592043059983e-05,1.90812383717826e-05
-0.0015948058125261,0.000787866162530551,-2.12449009644972e-05,1.78006364375089e-06
-0.00159224281264799,0.000771462963310657,-1.72096133378654e-05,-1.5420114728804e-05
-0.00159246931031163,0.000760650680103939,-1.63617706235155e-05,-2.8380592532205e-05
-0.0015950799939084,0.000754940554794106,-1.84634182085428e-05,-3.63201978609823e-05
-0.00159966955182967,0.000749039694609624,-2.1673973336168e-05,-4.18414763343192e-05
-0.00160260210052741,0.00074676279704349,-2.3937222224967e-05,-4.61729092025658e-05
-0.00160375843070498,0.000747358843526771,-2.44006432673225e-05,-4.70284409032378e-05
-0.00160359153768966,0.000752639815368641,-2.3131968707324e-05,-4.22435423369363e-05
-0.00160076627735891,0.000762438819553782,-2.01311288898768e-05,-3.33338461428864e-05
-0.00159672508220226,0.000772535846980563,-1.54300216995845e-05,-2.41043681675963e-05
-0.001592135524281,0.000779640721061273,-9.71559203978507e-06,-1.75098939047703e-05
-0.0015863419524635,0.00078324084182029,-4.02134770142014e-06,-1.51284400562773e-05
-0.00158162126431592,0.00078073744659051,9.14924906215143e-07,-1.74964224049475e-05
-0.00157901058071915,0.00077583794449794,4.42429174965972e-06,-2.2423213349474e-05
-0.00157796153890857,0.000775468395678305,5.82753927713075e-06,-2.41939526757297e-05
-0.00157749662265161,0.000781858013979078,5.75679084742811e-06,-1.76623177594652e-05
-0.00157701978546499,0.000794982957540927,6.90970709045896e-06,-3.82696387281782e-06
-0.00157245406940306,0.000810396719598575,1.16717521996772e-05,1.06168214366571e-05
-0.00156499156743238,0.000819969226120068,1.88666739714366e-05,2.01237953531462e-05
-0.00155946025606753,0.000824201156151364,2.46877890121588e-05,2.52720653108387e-05
-0.00155575284694152,0.000829613258219555,2.75425299589747e-05,3.01143159095351e-05
-0.00155397662842134,0.000834977676569085,3.01884300857302e-05,3.61680355129818e-05
-0.00154789695429188,0.00083948378798269,3.55912971514855e-05,4.07517092794941e-05
-0.0015408516848595,0.000838804294991749,4.19439658414551e-05,4.05567764439893e-05
-0.00153909930819865,0.000832533885987633,4.39153204042508e-05,3.48831464885481e-05
-0.00154367694519025,0.000822436858560852,3.86222955480766e-05,2.51465599005755e-05
-0.00155378589354669,0.000809657621959306,2.84144022832882e-05,1.30293187177646e-05
-0.00156379947446582,0.000795829343547186,1.73543445401384e-05,1.53505159657981e-07
-0.00157378921352561,0.000783598469710259,6.83459560287919e-06,-1.17271922457006e-05
-0.00158444652464667,0.000772464321402569,-4.05346714901619e-06,-2.18306098323139e-05
-0.00159455547300312,0.000761997745156154,-1.51594333263145e-05,-3.12452069906547e-05
-0.00160303125399537,0.000750756308481473,-2.43620667081612e-05,-4.13286578797531e-05
-0.00160719165844868,0.00074052815082837,-2.99586999756736e-05,-5.12975702452473e-05
-0.00160946855601481,0.000731432481493502,-3.2187697907976e-05,-5.87768467902103e-05
-0.00160791883515828,0.000725042863192729,-3.17456693806971e-05,-6.28890426217813e-05
-0.00160268554703507,0.000723040147008905,-2.82944395577387e-05,-6.52827408867287e-05
-0.00159497270554141,0.000719261212304903,-2.16291500474782e-05,-6.74608300506632e-05
-0.00158624658502618,0.00071526770086692,-1.30412960629886e-05,-6.85787183939462e-05
-0.00157537469717113,0.000715804142701873,-3.53513199112833e-06,-6.71636633277014e-05
-0.00156031856300345,0.000718569798384297,8.57545120676366e-06,-6.38981541742852e-05
-0.00154336700101894,0.000718951268133597,2.52848812298681e-05,-6.07950191780115e-05
-0.00152567634139516,0.000719356579742228,4.32611550800441e-05,-5.77198463382872e-05
-0.00151115664906243,0.000725007100403732,5.37083080144551e-05,-5.14213640680625e-05
-0.00151283750014529,0.000736153169641088,5.0759053486152e-05,-3.86695280732675e-05
-0.00152515182048987,0.000752079531674357,3.8550812770812e-05,-1.95693789702599e-05
-0.00153498658746401,0.000771546409818316,2.67675559442073e-05,2.41683226987066e-06
-0.00153870591751968,0.000791037129821606,1.97805832899833e-05,2.26855621233797e-05
-0.00154360541961225,0.000802969980416893,1.38637942267668e-05,3.74099141174877e-05
-0.00155165204713655,0.000807201910448188,5.38137346081385e-06,4.48062850580947e-05
-0.00155713567478273,0.000806415129090257,-3.00809541289473e-06,4.61860868665171e-05
-0.00155885228865458,0.000803601789689171,-7.15799729147093e-06,4.55778786452547e-05
-0.00155906686538856,0.000802588510667593,-8.84827727938945e-06,4.68448736710238e-05
-0.00156297693031889,0.000802254724636955,-1.37430569825043e-05,5.04119875171238e-05
-0.00157006988346993,0.00080273156182358,-2.30801390370561e-05,5.33061262788062e-05
-0.00157486209719551,0.000800490427046444,-3.18243740659293e-05,5.29004637922982e-05
-0.0015780569063459,0.00079399352037868,-3.5449926489808e-05,5.02098513303582e-05
-0.00157719859940997,0.000789642381050729,-3.47642921796653e-05,4.88032286510525e-05
-0.00156947383698665,0.000788378762506173,-3.28352568292856e-05,5.0552565014029e-05
-0.0015663028696956,0.000788724469466476,-3.04975991045369e-05,5.33165083399668e-05
-0.00156260738149925,0.000785529660316089,-2.69856387568555e-05,5.33302693354836e-05
-0.00155469188420128,0.000777494953721461,-2.26410732499769e-05,4.92826660856301e-05
-0.00154759893105024,0.000769257591322517,-1.87193093561758e-05,4.31732216004653e-05
-0.00154436835911085,0.000760531470807282,-1.60347894768797e-05,3.75382949682464e-05
-0.00154219874991171,0.000752794787454294,-1.55509169103259e-05,3.33049908353239e-05
-0.00154175767551408,0.000747215792370784,-1.85333025734779e-05,3.07910622697248e-05
-0.00154526242883577,0.000744712397141003,-2.40426515933048e-05,3.10790157472048e-05
-0.00154863605193115,0.000745177313397963,-2.81364166879586e-05,3.46113504082277e-05
-0.00154628762878702,0.000746822401691818,-2.84048255723899e-05,3.91614397697912e-05
-0.00154305705684764,0.000745916411037231,-2.79503479156781e-05,4.14330908472591e-05
-0.00154567966137407,0.000742864653042832,-3.14063328632041e-05,4.10623716405103e-05
-0.00155007848442069,0.000740265890375727,-3.74941893803941e-05,4.11275705650712e-05
-0.00154892215424312,0.000740122839219739,-3.93144920145907e-05,4.3745332434892e-05
-0.00154145965227244,0.000740623518265695,-3.26763746416593e-05,4.68116057696678e-05
-0.00152809629011728,0.000737583681200962,-2.06610949258898e-05,4.6573196998363e-05
-0.00151337394198024,0.000731265588478183,-8.54134465541406e-06,4.22009730695216e-05
-0.0015013218820883,0.000722968621430911,2.4897689199091e-06,3.60612581588082e-05
-0.00148888835244705,0.000714635891594642,1.4045267021405e-05,3.03580339760399e-05
-0.00147527465076891,0.000708019775630222,2.56075896558548e-05,2.55721517430906e-05
-0.00146516570241247,0.000702750724718018,3.43895389889088e-05,2.16625238792999e-05
-0.00145971783755528,0.000696980994759857,3.9320394006782e-05,1.82341850752735e-05
-0.00145567664239863,0.000691223185731362,4.20560543926367e-05,1.31993464902328e-05
-0.00145287522392721,0.000679612200237048,4.3681384693977e-05,3.7840856799376e-06
-0.0014530182750832,0.000664567986999034,4.26607093250051e-05,-1.01187416976035e-05
-0.00145845421901072,0.00064922575051938,3.69423749029982e-05,-2.58082785198762e-05
-0.00146777638600924,0.000630831756045327,2.6925896229427e-05,-4.23558368994286e-05
-0.00147755154833505,0.000608181989680647,1.58049231060702e-05,-6.30080312804411e-05
-0.00148625382699095,0.000583100353664181,7.66898538363396e-06,-9.04320428642148e-05
-0.0014883876734011,0.000551819834221592,5.23612487303485e-06,-0.000120704178736956
-0.00148391732477649,0.000525450737801238,8.38888952894445e-06,-0.000144876725462381
-0.00147899398082459,0.000515651733616098,1.45275433193873e-05,-0.000156852927774316
-0.00147241362764917,0.000514996082484489,2.08480440594374e-05,-0.000158240452485297
-0.00146605977213739,0.000516688854497007,2.6369941635937e-05,-0.000155718574102219
-0.00146244773044871,0.00051779750095591,3.15660924575984e-05,-0.000155230616358126
-0.00145722636325516,0.000516665012637676,3.67219378002714e-05,-0.000158188127889119
-0.0014522195727956,0.000515091449921814,4.15223263081677e-05,-0.000160864408784953
-0.00144921549851987,0.000519406826460768,4.56041085803927e-05,-0.000156989590638985
-0.00144793995904565,0.000534427197839451,4.82078887052008e-05,-0.000143093163314188
-0.00144802340555331,0.000558233294381696,4.76168217508196e-05,-0.0001224203966169
-0.00145430573548709,0.000578832660843889,4.2511115928917e-05,-0.00010220060235945
-0.00146441468384353,0.000596678292553323,3.41193528415736e-05,-8.61502559358028e-05
-0.00147308119971044,0.00061506036609771,2.5725743649843e-05,-7.08837004281381e-05
-0.00147997149705717,0.000636386909269506,1.95906101217806e-05,-5.04414271008997e-05
-0.00148619422234262,0.000666523019464196,1.53199366983592e-05,-2.2920779726418e-05
-0.00149065265003757,0.000701141399213159,1.15055657268477e-05,8.35850850995271e-06
-0.00149608859396509,0.000732338472148089,7.69636654014258e-06,3.86614022497407e-05
-0.00150022515655906,0.000761795089351838,4.01057203304393e-06,6.50499342183929e-05
-0.00150682935159381,0.000787055539313289,-2.10116542952847e-07,8.67967517574431e-05
-0.00151385077916686,0.000806999254643873,-6.20344447822861e-06,0.000104806922594199
-0.00152255305782277,0.000825417090977257,-1.42762214441825e-05,0.000120851373546819
-0.00153365144334146,0.000843799164521644,-2.29163236541621e-05,0.000135833416130705
-0.00154134044297579,0.000859439424242939,-2.95092156157046e-05,0.000148131187445451
-0.00154517898232812,0.000867855600586867,-3.2306094936515e-05,0.00015452081869004
-0.00154699096363729,0.000869822553981695,-3.22629871521702e-05,0.000153619899901968
-0.00154858836821248,0.000868415884281151,-3.25662135743405e-05,0.000148433030838015
-0.00155304679590743,0.000867617181993555,-3.52710383260446e-05,0.000145036929886402
-0.00155713567478273,0.0008731842561474,-3.84544307938044e-05,0.000148062592067886
-0.00155793437707033,0.000885021739305361,-3.79246698117108e-05,0.00015661217091187
-0.00155456075397496,0.00089594131087907,-3.20248477794616e-05,0.000164187018804787
-0.00154629954971668,0.000896585041081014,-2.36281589107952e-05,0.000163035842301208
-0.00154142388948345,0.00088720326943417,-1.71933297744515e-05,0.000149365478429263
-0.00154124507553846,0.000864720396084809,-1.53068150210805e-05,0.000125053308340206
-0.00154591807996738,0.000837624122954853,-1.85017226871746e-05,9.51391773957029e-05
-0.00155429849352232,0.000810289431231584,-2.62841565063312e-05,6.42851476918502e-05
-0.00156551608833766,0.000783360051116946,-3.64779440388743e-05,3.51504214157466e-05
-0.00157619724131806,0.000759255931333061,-4.48445515315037e-05,8.67710262027952e-06
-0.00157969007371009,0.00073878769509719,-4.77801934139968e-05,-1.5120261805509e-05
-0.00157777080403392,0.000719058556500587,-4.55027937980641e-05,-3.65774020368478e-05
-0.00157533893438214,0.00070279840843668,-4.10929799956528e-05,-5.61116259373679e-05
-0.00157179841827145,0.000686991255700067,-3.64789266145632e-05,-7.41077663024993e-05
-0.00156677970688222,0.0006721735401257,-3.09685946018447e-05,-9.04582165922515e-05
-0.00156074771647142,0.000661885777824269,-2.38852943637441e-05,-0.000103940295070885
-0.00155467996327162,0.00065556768510149,-1.67997590348893e-05,-0.000112882736671681
-0.00155105600065327,0.000652229824795116,-1.20778363510684e-05,-0.000117290357921129
-0.00154998311698336,0.00065172914574916,-1.02159677471965e-05,-0.000119433596238266
-0.00154998311698336,0.000654470959572253,-9.63548998489404e-06,-0.000120798451933025
-0.00154966125188239,0.000657117405958021,-8.54331963772909e-06,-0.000118888613253674
-0.00154883870773546,0.00066803697753173,-6.12226251676876e-06,-0.000108958359721486
-0.00154528627069511,0.000690507929951425,-2.27275263819207e-06,-8.92211393940892e-05
-0.00154061326626618,0.0007192969750939,2.85878617703733e-06,-6.30406944757075e-05
-0.00153553495022863,0.000746774717973156,8.90235662354115e-06,-3.63482348483162e-05
-0.00153098115509636,0.000768303916949267,1.51971629875274e-05,-1.50429890610632e-05
-0.00152535447629419,0.000783062027875306,2.08615454608096e-05,-4.53497932992289e-06
-0.00152112254626289,0.000780570553575191,2.5048958952718e-05,-7.74068103877034e-06
-0.00152107486254423,0.000767159507701367,2.75024114570233e-05,-2.0923653187826e-05
-0.00152053842070928,0.000757372424445893,2.88629106067963e-05,-3.39498098975749e-05
-0.00151903638357141,0.000754511401326144,2.98704081915377e-05,-3.80638051360942e-05
-0.00152018079281931,0.000759840056886676,3.02589436684516e-05,-3.29325488032108e-05
-0.00152286300199407,0.000771212623787679,2.9459869422454e-05,-2.39296319201962e-05
-0.00152393588566398,0.000782024906994397,2.87265559091531e-05,-1.37160798735627e-05
-0.00152168282995718,0.000796973752795085,3.09273057851794e-05,1.73935282580521e-07
-0.0015187622021891,0.000818121482021897,3.66178105680193e-05,1.92915497118504e-05
-0.0015146017977358,0.000838029434563484,4.13862013001661e-05,3.92408323210714e-05
-0.00151687869530193,0.000852644494333535,3.95790056951115e-05,5.27362936265655e-05
-0.00152714261574403,0.000858318856854371,3.08361845215442e-05,5.64110222700716e-05
-0.00153927812214363,0.000854921391899669,2.06828192409736e-05,5.30682565698398e-05
-0.00154631147064635,0.00085015302003342,1.40003921593553e-05,4.77690726067153e-05
-0.00155131826110591,0.000847315838773002,1.02879998706444e-05,4.2971485698944e-05
-0.00155709991199374,0.000842106392509126,6.70366699019874e-06,3.75826397607657e-05
-0.00156153449782935,0.000834226658000151,3.1761733106298e-06,2.97696286141871e-05
-0.0015640140511998,0.000825607825851907,1.68415668488979e-06,1.95506050386042e-05
-0.00156577834879031,0.000814783621715523,2.01763914027259e-06,8.13910918360322e-06
-0.00156768569753681,0.00080205206883264,1.70277407911671e-06,-4.24824184568592e-06
-0.00157063016716422,0.00078890328341146,-1.86140181288046e-07,-1.78969868706133e-05
-0.00157418260420457,0.000777649925807114,-2.45550351091133e-06,-3.03805001878984e-05
-0.00157955894348377,0.000771689460974303,-5.32331390047767e-06,-3.60654866552636e-05
-0.00158627042688551,0.000776040600302255,-1.10346085247258e-05,-3.1147489506266e-05
-0.00159614095664865,0.000789368199668419,-1.96383017812855e-05,-1.85857691471724e-05
-0.00160554657015482,0.000802528906019265,-2.72696030959317e-05,-5.91808231676071e-06
-0.00161091098850435,0.000809526491732984,-3.05967241150544e-05,2.02080415336903e-06
-0.001611101723379,0.00081375842176428,-3.00776804372086e-05,6.77781522336718e-06
-0.00160909900719517,0.000820148040065052,-2.60991117699805e-05,1.27985092949105e-05
-0.00159884700768274,0.000829303314048249,-1.48043835873388e-05,2.20166265526664e-05
-0.00157847413888419,0.000838196327578802,7.43390200235565e-06,3.22779435953116e-05
-0.00155110368437193,0.00084419255520061,3.58140342443585e-05,3.94940561815065e-05
-0.00153009900630111,0.000845944931861456,5.80743108416667e-05,4.04480966235403e-05
-0.00152380475543766,0.000838553955468771,6.56678950002849e-05,3.4547178034179e-05
-0.00152857312730391,0.000826215793264853,6.16230204974257e-05,2.39344833173372e-05
-0.00153626212693823,0.000813198138069995,5.57535807507455e-05,1.18131851944441e-05
-0.00153809795010674,0.000801134157248387,5.41552218054965e-05,5.12407322884583e-07
-0.00153729924781914,0.000790798711228294,5.55064468311432e-05,-8.64150614906503e-06
-0.00153775224314643,0.000782251404658044,5.61982308664054e-05,-1.43457979665007e-05
-0.00153912315005798,0.000779855297795254,5.57404929057393e-05,-1.57465078796599e-05
-0.00153892049425366,0.000780236767544554,5.58526552361487e-05,-1.39945309932471e-05
-0.00153790721523209,0.00078035597684121,5.60338588914272e-05,-1.19571100729272e-05
-0.00154358157775292,0.000777554558369789,5.26898096307861e-05,-1.16871166117817e-05
-0.00155181894015187,0.000774395512008399,4.35228760036564e-05,-1.29262083322902e-05
-0.00156311998147488,0.000771856353989622,3.11049009372653e-05,-1.42994370020617e-05
-0.00157459983674287,0.000768053577426289,1.98486958224388e-05,-1.48855475187735e-05
-0.00158505449205962,0.000765407131040521,9.65955404134927e-06,-1.42248959052654e-05
-0.00159841785421478,0.000765728996141493,-4.77910628319275e-06,-1.19657780480671e-05
-0.0016190410625363,0.000767147586771702,-2.71747836111951e-05,-8.24844044220064e-06
-0.00164533863337866,0.000768375442527261,-5.40686464687106e-05,-3.68069710965581e-06
-0.00166915665085057,0.00076998476803212,-7.78026485973101e-05,1.52569972398225e-06
-0.00168228159441242,0.000773084209745181,-9.34789830613501e-05,7.58863421181307e-06
-0.00168805132437058,0.000778031395556414,-0.000101272901123757,1.40767313274341e-05
-0.00169007788241374,0.000779044674577992,-0.000103987944005436,1.99309598214147e-05
-0.00168966064987544,0.000780260609403885,-0.000105533703465639,2.4957666490427e-05
-0.00169289122181482,0.000783395813905943,-0.000110592038441146,2.99466016905269e-05
-0.00170071135167547,0.000784206437123205,-0.000121538493885353,3.46190153222087e-05
-0.00171177397440517,0.00078285937207099,-0.000134785936208561,3.69202151698732e-05
-0.00171934376474284,0.000777161167690823,-0.000143110303445704,3.54809880371605e-05
-0.00171499262541489,0.000770723865671388,-0.000142577451199209,3.15719763021168e-05
-0.00170369158409188,0.000763332889278703,-0.000134855630495479,2.7360723066869e-05
-0.00168933878477447,0.000755131289668756,-0.000122473296495237,2.33457288108357e-05
-0.00167084942286309,0.00074599985754489,-0.000105391617868072,1.89333088075066e-05
-0.00164448032644274,0.000740289732235058,-8.37861387140919e-05,1.44547627681646e-05
-0.00161727676494579,0.000732672258178726,-6.05710607834121e-05,1.07556274763894e-05
-0.00159347066840355,0.000724268002764463,-3.80915668212187e-05,7.41949964786782e-06
-0.00156786451148179,0.000718021435619678,-1.47409071705964e-05,3.29674480423263e-06
-0.0015354395827913,0.000710308594126021,1.14974773880774e-05,-1.4822414040271e-06
-0.00150716313762445,0.000702297729390724,3.72470163568718e-05,-5.77580474172181e-06
-0.0014879346780738,0.00069539551111433,5.50444425828309e-05,-9.44646790101363e-06
-0.00147787341343602,0.000688493292837935,6.07946697298042e-05,-1.31219275208701e-05
-0.00147609719491584,0.000683546107026703,5.78128512266642e-05,-1.59008015151975e-05
-0.00147845753898964,0.000681150000163913,5.3545114542043e-05,-1.55835007659908e-05
-0.00147444018569232,0.00068099502807826,5.42346618614132e-05,-1.21190637834019e-05
-0.00146342524668129,0.000682067911748166,6.23374254794532e-05,-8.98998455376763e-06
-0.00144497164755891,0.000679647963026044,7.61542128876548e-05,-9.58647456020287e-06
-0.00142778166698108,0.000673913995856881,9.0689868666686e-05,-1.29426953869851e-05
-0.00141634949543175,0.00067024234951987,0.000100552112330511,-1.42706758880929e-05
-0.00140893467717973,0.000672912637764969,0.000103535152572368,-9.52136914324632e-06
-0.00140779026793183,0.000682580511723787,0.000101205513489942,1.05848887421655e-06
-0.00141197451424447,0.000693607371664487,9.60658854313894e-05,1.33004219222711e-05
-0.00141454943505224,0.0007006764829562,8.92183194434151e-05,2.2330620948106e-05
-0.00142133244403198,0.000702166599164402,8.09180626529319e-05,2.58154127742573e-05
-0.00142761477396576,0.00070269112006969,7.19662928814862e-05,2.48629782538079e-05
-0.00143250235512867,0.000698638003983379,6.35417819413578e-05,2.21193613094955e-05
-0.00143975028036536,0.00069357160887549,5.6048898983646e-05,1.91592992460445e-05
-0.00144492396384024,0.000691080134575375,4.86410625739366e-05,1.57561369565563e-05
-0.00144971617756582,0.000687360804519701,3.99383795233797e-05,1.10117310501835e-05
-0.00146054038170221,0.000679945986267685,2.9608897652718e-05,4.31518220219397e-06
-0.00146856316736717,0.000670838396003151,1.95850267525598e-05,-4.57694324566524e-06
-0.00147337922295208,0.000661003629029013,1.28530426417497e-05,-1.53654272166163e-05
-0.00147532233448758,0.00065143112250752,1.00362188000231e-05,-2.69213209516577e-05
-0.00147609719491584,0.000641274490432411,8.10280593239935e-06,-3.79143027326491e-05
-0.00147947081801121,0.000630462207225693,4.12365767414149e-06,-4.7916768082553e-05
-0.00148322591085588,0.000623917616839267,-4.49735042673359e-07,-5.74056957989609e-05
-0.00148420342708846,0.00061734918459351,-1.71109939097258e-06,-6.67739054664725e-05
-0.00148059138539978,0.000608789957093594,5.45201703417206e-07,-7.58188427760286e-05
-0.00148035296680647,0.000601756608590878,1.56101409827759e-06,-8.37525955235856e-05
-0.00148477563171241,0.000599992311000366,-2.35559498048042e-06,-8.8951202555333e-05
-0.00149043807330358,0.000602805650401452,-9.26938076717114e-06,-8.93644294437643e-05
-0.00149627932883974,0.000609326398928547,-1.51292797672277e-05,-8.44672008190909e-05
-0.00150297889131182,0.000617790258991138,-1.95028576845429e-05,-7.64162472214818e-05
-0.00150824794222402,0.000631487407176936,-2.4731538903515e-05,-6.79230017638612e-05
-0.00151282557921562,0.000643765964732526,-3.06803038994831e-05,-5.93819416201758e-05
-0.0015187979649781,0.000653946438666966,-3.40936352196642e-05,-4.95731671071906e-05
-0.001519870848648,0.000668060819391061,-3.35293017478759e-05,-3.85036559721713e-05
-0.00151792773711251,0.000683319609363056,-3.163796311535e-05,-2.73319562172982e-05
-0.00151759395108187,0.000699794334160944,-3.1093950716508e-05,-1.59240810718159e-05
-0.00152001389980399,0.000712025207997871,-3.07601449071594e-05,-3.51134502993849e-06
-0.00151906022543074,0.000726151509651632,-2.79632596086277e-05,7.82358188544961e-06
-0.00151394614660419,0.000739336057861808,-2.28936677832245e-05,1.38800495270992e-05
-0.00151050099793082,0.000741398378693961,-1.82678798146423e-05,1.45237259433259e-05
-0.00151108512348444,0.000744712397141003,-1.53808733538324e-05,1.62477322383029e-05
-0.00150947579797958,0.000758099601155496,-1.31234123248357e-05,2.5365462201784e-05
-0.00150893935614463,0.000776946590956842,-1.1197089363357e-05,3.97696218524035e-05
-0.00151124009557009,0.000790512608916319,-1.18580360609498e-05,5.02763235651868e-05
-0.00151878604404843,0.000791382836781909,-1.69680826884709e-05,5.01724557956426e-05
-0.00152841815521825,0.000787353562554929,-2.46445825776391e-05,4.1838282344305e-05
-0.00153558263394729,0.000783848809233237,-3.06165402274577e-05,3.4231567003027e-05
-0.00153870591751968,0.000787508534640582,-3.25310196317249e-05,3.51950689996865e-05
-0.00154110202438247,0.000799036073627238,-3.14161344981714e-05,4.57523942303577e-05
-0.00154017219186855,0.000817561198327613,-2.90289126904238e-05,6.03282504219626e-05
-0.00153760919199045,0.000833022644103923,-2.57085063806068e-05,7.21879324563996e-05
-0.00153571376417361,0.000842309048313442,-2.17844504716664e-05,7.89810344764684e-05
-0.00153708467108516,0.000846254876032762,-1.93685622309534e-05,8.25914776465624e-05
-0.00153796681988042,0.000851547768804298,-2.04998834909475e-05,8.40966348984715e-05
-0.00154333123822994,0.000852322629232563,-2.37550193564833e-05,8.15125056074743e-05
-0.0015468836752703,0.000845766117916472,-2.48305234168303e-05,7.39641029146746e-05
-0.00154488095908648,0.000838434746172115,-2.11812814029976e-05,6.54699555323557e-05
-0.00153939733144029,0.000837039997401237,-1.44957539610438e-05,6.12969780623503e-05
-0.0015347481688707,0.000839281132178374,-7.74994774107086e-06,6.13870137472199e-05
-0.00152990827142646,0.000840139439114299,-1.6089934223089e-06,6.05020190851819e-05
-0.00152565249953583,0.000834417392874801,4.61200732778246e-06,5.48850045002252e-05
-0.00152193316948016,0.000827360202512753,1.0024173299465e-05,4.59306741230098e-05
-0.00151975163935135,0.000821030188860308,1.29942429734173e-05,3.67585956459169e-05
-0.00151993045329633,0.000812530566008721,1.45913615775477e-05,2.80262354990157e-05
-0.00151823768128381,0.00080235009207428,1.83267354315559e-05,1.86888816293466e-05
-0.00151162156531939,0.000795400190079223,2.55947176353432e-05,8.82902397695788e-06
-0.00150489816098798,0.000786960171875964,3.36646724401731e-05,-4.26953266557513e-07
-0.00150026091934806,0.000778496311813373,3.95268443026228e-05,-8.93568479590542e-06
-0.00149821051944557,0.000769650982001482,4.3733358298039e-05,-1.75910679615434e-05
-0.00149332293828266,0.000761914298648494,4.84844587326323e-05,-2.65414993956404e-05
-0.00148996123611696,0.000754177615295506,5.3334096892601e-05,-3.4946241820473e-05
-0.00148985394774997,0.000746738955184159,5.52784625875723e-05,-4.28305000571273e-05
-0.00149252423599507,0.000736606164968381,5.2786291047849e-05,-5.17199416388924e-05
-0.00149859198919487,0.000726616425908591,4.75964383469435e-05,-6.21327967496997e-05
-0.00150587567722056,0.00071959499833554,4.22312595080124e-05,-7.0926664975046e-05
-0.00151066789094614,0.000716960472879438,3.73710927848071e-05,-7.28595127122107e-05
-0.00151680716972394,0.000721645398238027,3.21726116566778e-05,-6.58016550188669e-05
-0.00152442464378027,0.000735855146399447,2.58594352374799e-05,-5.37241972325899e-05
-0.00153273353175721,0.000746774717973156,1.83239082422838e-05,-4.34487276583428e-05
-0.00154091128950782,0.000749599978303908,1.00249291809606e-05,-3.8641076572608e-05
-0.00155037650766233,0.00074973110853023,1.82378219275288e-06,-3.77696677459175e-05
-0.00155915031189622,0.000751841113081045,-5.7262577911453e-06,-3.73253118293952e-05
-0.00156670818130423,0.000752878233961954,-1.32469751180615e-05,-3.54961222034843e-05
-0.00157517204136682,0.000754785582708453,-2.19920052416901e-05,-3.27522567174171e-05
-0.00158758172914873,0.000756597564017627,-3.20580603207319e-05,-3.04642107689469e-05
-0.00159708271009223,0.000758183047663155,-4.17125608620197e-05,-2.92594414655458e-05
-0.00160415182138394,0.00075991158246467,-4.88866501793714e-05,-2.73303163152775e-05
-0.00160921821649183,0.000766372726343437,-5.30276220526142e-05,-2.04314630133356e-05
-0.0016125560767982,0.000780212925685222,-5.54324765191088e-05,-5.83142793284853e-06
-0.00161546478363662,0.000798714208526266,-5.81469492555955e-05,1.29807559452845e-05
-0.00161970863459758,0.000814473677544217,-6.22693516996494e-05,2.77923217821797e-05
-0.0016244174018155,0.000819242049410465,-6.64684810845665e-05,3.32030093472198e-05
-0.00162584791337537,0.000815403510058135,-6.71639283514847e-05,3.08660210350813e-05
-0.00162061462525216,0.000810241747512921,-6.11125376037132e-05,2.53252196815771e-05
-0.00160704860729269,0.000804758119866736,-4.81670074934121e-05,1.85679407256425e-05
-0.00159014472902684,0.000796234655155817,-3.11247391702576e-05,1.09294016379651e-05
-0.00157488593905484,0.000787067460242954,-1.33470892959301e-05,4.29990120913278e-06
-0.00155742177709471,0.000785553502175421,2.41206130270946e-06,1.9698148283705e-07
-0.00154708633107462,0.000781166600058472,1.35143462948612e-05,-4.06501792923314e-06
-0.00154293784755098,0.000771331833084335,1.81618812076455e-05,-1.27453129316229e-05
-0.00154461869863383,0.000757527396531546,1.74962361316868e-05,-2.48760805756935e-05
-0.0015461564985607,0.000751113936371442,1.53467524837072e-05,-3.39109652756999e-05
-0.00154720554037127,0.000749087378328286,1.475884751198e-05,-3.52763002742176e-05
-0.00154639491715401,0.000751388117753751,1.57597182896828e-05,-3.11795449142297e-05
-0.00154616841949036,0.000756251857057324,1.70060716641615e-05,-2.65631158792711e-05
-0.00154513129860945,0.000760543391736948,1.78555853400504e-05,-2.31397022877586e-05
-0.00154482135443815,0.000763380572997366,1.77810289910419e-05,-1.93917163113286e-05
-0.0015472293822306,0.000768137023933948,1.57558976490201e-05,-1.42801493031997e-05
-0.00155242690756481,0.00077267889813655,1.21424608194801e-05,-8.61102071335545e-06
-0.00155360707960171,0.000777912186259758,9.79168275247499e-06,-3.85544078508208e-06
-0.00155161628434755,0.000780594395434522,1.12623068405456e-05,-1.35860042220877e-06
-0.0015480638473072,0.000778734730406685,1.60209547214127e-05,-1.69581938384325e-06
-0.00154285440104332,0.000775492237537637,2.21305887185585e-05,-3.19883603046054e-06
-0.00153405675495009,0.000778293656009057,2.90250300640978e-05,-2.03311307318554e-06
-0.0015271545366737,0.000783741520866246,3.60236388277839e-05,4.53499111144376e-06
-0.00152473458795158,0.000792276906506831,3.9789120986932e-05,1.5251365131825e-05
-0.00152710685295503,0.000802445459511605,3.7181719111481e-05,2.61847684491054e-05
-0.00153191098761028,0.000810813952136871,3.03371111230652e-05,3.41129640306052e-05
-0.00153830060591105,0.000812780905531699,2.50617993079202e-05,3.77315791129099e-05
-0.00153968343375226,0.000810313273090915,2.37052647107986e-05,3.70695550327887e-05
-0.00153937348958096,0.000805294561701689,2.31808371719249e-05,3.37433114575118e-05
-0.00154107818252314,0.000802493143230268,2.07510235081036e-05,3.08849046536407e-05
-0.00154321202893329,0.00080080037121775,1.79663868347015e-05,3.03864457325789e-05
-0.00154398688936155,0.000796651887694114,1.75761616475664e-05,3.03003837100567e-05
-0.00154033908488387,0.00079361205062938,2.04127567617756e-05,2.71448645287447e-05
-0.00153163680622797,0.000785791920768733,2.71493389172366e-05,2.09067837222347e-05
-0.00151997813701499,0.000778234051360729,3.88768991107912e-05,1.5395351245765e-05
-0.00150572070513491,0.000772833870222203,5.28689413443211e-05,1.29690399274898e-05
-0.00149508723587318,0.000769567535493823,6.17450369518854e-05,1.14016220895942e-05
-0.00149415740335926,0.000764608428752925,6.12870043266398e-05,7.60907937321818e-06
-0.00149841317524988,0.000756990954696593,5.64240697020248e-05,2.48266532429992e-06
-0.00149948605891979,0.000750005289912539,5.47297295293952e-05,-4.37122772436753e-07
-0.00149579057072345,0.000749504610866583,5.57821342590895e-05,-8.85085688664773e-08
-0.00149912843102982,0.000748467489985674,5.18754111336717e-05,1.11571473246577e-06
-0.0015115142769524,0.000746059462193218,3.81392337362911e-05,1.67769851890609e-06
-0.00153056392255806,0.0007443666901807,1.6764916071189e-05,3.92491701718874e-06
-0.00155481109349794,0.000750613257325486,-8.36003961939601e-06,1.1032734597243e-05
-0.00158028612019337,0.000758910224372758,-3.53985061231649e-05,2.22675020037606e-05
-0.00160373458884565,0.000765717075211827,-6.17662668223107e-05,3.27417569370544e-05
-0.00162371406696523,0.000768387363456926,-8.30370184369927e-05,3.78788762516855e-05
-0.00163738737329169,0.000765514419407512,-9.76130837825636e-05,3.73570370401951e-05
-0.00164597044265094,0.000759577796434033,-0.000109042588706235,3.45924155049776e-05
-0.0016544104608542,0.000755441233840062,-0.00012095836134082,3.28865957026081e-05
-0.00166575918589587,0.000751566931698735,-0.000132233030992719,3.24181919460153e-05
-0.00167144546934637,0.000747251555159781,-0.000139466874615522,3.09114924271728e-05
-0.00166876326017161,0.000741720243794933,-0.000142049106830447,2.67591552425009e-05
-0.00166826258112565,0.000731658979157148,-0.000142417799341698,2.07684239531519e-05
-0.0016688347857496,0.00072275404469693,-0.00014286596525749,1.46850974515438e-05
-0.00166441212084366,0.00071575645898321,-0.000143821267731277,8.94222907006843e-06
-0.00166293392556512,0.000706327003617704,-0.000143665430015476,2.7372185183705e-06
-0.0016559005770624,0.000696575683151226,-0.000138664647521453,-4.39941875947369e-06
-0.00164030800105977,0.000686180632482805,-0.000124642074283923,-1.2544849384969e-05
-0.0016125918395872,0.000674712698144477,-0.000100269369627585,-2.25716215478356e-05
-0.0015776039110186,0.000658977070985858,-6.76863640388781e-05,-3.53869603610011e-05
-0.00153877744309768,0.000643122234530582,-2.96692745679834e-05,-4.9164143388607e-05
-0.0014944911893899,0.000632798709440154,1.12267172543906e-05,-5.89052884268351e-05
-0.00145406731689378,0.000628411807323206,4.994319203775e-05,-6.03936205734435e-05
-0.0014233351602158,0.000632846393158817,7.91379620919221e-05,-5.43091648955802e-05
-0.00140408285880583,0.000641489067166392,9.53280999443986e-05,-4.55663028853614e-05
-0.00139478453366664,0.000646746197148931,0.000103174504176834,-3.88445848407777e-05
-0.00138626106895572,0.000647378006421209,0.000111194991457037,-3.51954454258577e-05
-0.00136942871626787,0.000651824513186485,0.000124205497114385,-3.2197571597415e-05
-0.00135170229385509,0.000657272378043674,0.000140914229439222,-2.64091349755741e-05
-0.00133614548064145,0.000664627591647362,0.000156011218974636,-1.61430184711299e-05
-0.00132768162057886,0.000678610842145135,0.000162136436456977,-3.07026043388243e-06
-0.00133589514111848,0.000691342395028019,0.000152846016553152,8.65102869153587e-06
-0.00135837801446784,0.000697422069157485,0.000128242437447765,1.53637127510859e-05
-0.00138996847808173,0.00069721941335317,9.73275275269491e-05,1.62769279866595e-05
-0.00141414412344361,0.000696039241316273,7.15177652990722e-05,1.31227314799175e-05
-0.00142865189484667,0.000692403357768259,5.54890664038023e-05,8.24230548946117e-06
-0.00143775948511121,0.000687170069645051,4.59090961595257e-05,3.29186709041671e-06
-0.00144649752655611,0.000683283846574059,3.77949043905523e-05,-1.04651865593557e-06
-0.0014537454517928,0.00068216327918549,2.93968917644345e-05,-4.80624051139426e-06
-0.00146068343285819,0.000680780451344278,2.16904752126145e-05,-7.95555030136077e-06
-0.00146647700467569,0.000678336660762826,1.615508502781e-05,-1.01044092049777e-05
-0.00146993407427872,0.00067936186071407,1.33286909804552e-05,-1.20685783158414e-05
-0.00147172221372856,0.000675952474829702,1.16901674951365e-05,-1.7183597241997e-05
-0.00147422560895834,0.00066765550778243,8.2752670945758e-06,-2.83045213149294e-05
-0.00148164042721036,0.000654566327009578,1.99723265176768e-06,-4.25347107267641e-05
-0.00148986586867963,0.000647163429687228,-4.54977740618283e-06,-5.19906814303961e-05
-0.00149312028247835,0.000651192703914207,-8.39322824483891e-06,-5.22846673020537e-05
-0.00149561175677846,0.000656867066435043,-9.99935065394557e-06,-4.78784804739172e-05
-0.00149840125432022,0.000661981145261594,-1.16476546010595e-05,-4.59246269267634e-05
-0.0015023947657582,0.000663030187072169,-1.36289795299759e-05,-4.69537832648749e-05
-0.00150378951452908,0.000668132344969055,-1.49921637483963e-05,-4.57582396351592e-05
-0.00150682935159381,0.000678038637521186,-1.66626851291213e-05,-3.98114272044512e-05
-0.00151230105831033,0.000686931651051739,-2.02045078296188e-05,-3.12738485682342e-05
-0.00151754626736321,0.000701952022430421,-2.42017626296977e-05,-2.08143734609561e-05
-0.00152083644395092,0.000721347374996386,-2.56143866115613e-05,-5.96548251398265e-06
-0.0015206695509356,0.000741398378693961,-2.45545464272238e-05,1.19769334622377e-05
-0.00152227887644046,0.000756418750072643,-2.41091143912301e-05,2.53052448890285e-05
-0.00152581939255115,0.000765240238025203,-2.54039216632858e-05,2.87611763210733e-05
-0.0015286088900929,0.000767827079762642,-2.65261288874347e-05,2.72520270235982e-05
-0.0015297890621298,0.000770974205194366,-2.65328497935248e-05,2.973616597777e-05
-0.0015320063550476,0.000783157395312631,-2.65148245570535e-05,3.79399105606899e-05
-0.00153409251773909,0.000796425390030467,-2.59885289272874e-05,4.63106060127149e-05
-0.00153270968989788,0.000803458738533183,-2.25775817737954e-05,5.13029561297375e-05
-0.00152709493202537,0.000809419203365994,-1.70695421982525e-05,5.44182950156278e-05
-0.00152946719702883,0.000813555765959964,-1.49232104520909e-05,5.58828793970424e-05
-0.00153588065718893,0.000814604807770539,-2.00466442477221e-05,5.18509163084216e-05
-0.00154680022876264,0.000805044222178711,-2.9613811098513e-05,4.08599914656088e-05
-0.00155670652131477,0.000794982957540927,-3.73148860002525e-05,2.8461505882431e-05
-0.00156108150250205,0.000791525887937897,-3.95991206837075e-05,2.12334852695534e-05
-0.00156120071179871,0.000791823911179537,-3.68400804785694e-05,1.85483981625309e-05
-0.0015556217167152,0.000789189385723435,-3.0790078246786e-05,1.42978758248401e-05
-0.00155030498208433,0.000783455418554271,-2.35029532598236e-05,5.71817013020699e-06
-0.00154746780082391,0.000776338623543896,-1.73632803760197e-05,-3.50959011491844e-06
-0.00154508361489079,0.000773513363213143,-1.39080352191551e-05,-9.27119258549244e-06
-0.00154520282418745,0.000772333191176247,-1.30283415090298e-05,-1.22092076385422e-05
-0.0015483737914785,0.000771415279591994,-1.38891239689871e-05,-1.44614557920253e-05
-0.00155278453545478,0.000774478958516059,-1.51904745388667e-05,-1.36683987669718e-05
-0.0015514613122619,0.000786328362603686,-1.44509814932613e-05,-4.51996787670527e-06
-0.00154967317281205,0.000803911733860477,-9.93004188031784e-06,1.28101360954821e-05
-0.00154562005672574,0.000821793128358908,-4.28633291920785e-06,2.91511970700743e-05
-0.00154658565202866,0.000829160262892262,-3.07457110943241e-06,3.44627174116379e-05
-0.00155081758205995,0.000824499179393004,-7.62959142648326e-06,2.84724963317765e-05
-0.0015586734747096,0.00081596379375242,-1.24164404871508e-05,2.00798439774296e-05
-0.0015594006514192,0.000814390231036558,-1.19563352580215e-05,1.64219622165497e-05
-0.00155581245158985,0.000814604807770539,-7.72459696764979e-06,1.64248764018641e-05
-0.00155531177254389,0.000815856505385429,-5.25927913947473e-06,1.63431033061639e-05
-0.001557839009633,0.000816321421642388,-6.71391326651907e-06,1.70567587878267e-05
-0.00156184444200065,0.000822055388811552,-9.53372144069316e-06,2.18066911716446e-05
-0.00156449088838642,0.00082998280703919,-1.0754730874054e-05,2.94500354399121e-05
-0.00156427631165244,0.000835943271872,-9.26709723072165e-06,3.52036301176584e-05
-0.00156040200951111,0.000838482429890777,-5.07512241954425e-06,3.7548450381492e-05
-0.00155696878176741,0.000840282490270286,4.91540773134812e-07,3.94989519625009e-05
-0.00155391702377302,0.000843203118038363,4.78250453673936e-06,4.22611956991534e-05
-0.00155168780992554,0.000842845490148395,6.91506562125373e-06,4.21179063322051e-05
-0.00155030498208433,0.000836360504410297,9.75203614444952e-06,3.55548788835044e-05
-0.001546466442732,0.000823628951527414,1.59020940884356e-05,2.39345093580785e-05
-0.00153914699191731,0.000810957003292859,2.31488050729937e-05,1.06559146542328e-05
-0.00153503427118267,0.000795912790054845,2.73983276515589e-05,-3.44250983504564e-06
-0.00153614291764158,0.000779902981513916,2.90698014107893e-05,-1.89238016467901e-05
-0.00153362760148213,0.0007645130613156,3.24222616617758e-05,-3.40041130033376e-05
-0.00152666577855741,0.000752520606071985,3.88547708522588e-05,-4.5194379370605e-05
-0.00152239808573711,0.00074608330405255,4.51515087946671e-05,-5.11061236796956e-05
-0.00152018079281931,0.000742948099550491,4.88664835993453e-05,-5.33755868785838e-05
-0.00151791581618284,0.000741732164724598,5.13003134797936e-05,-5.42322558038718e-05
-0.00151641377904497,0.000739932104345089,5.37550901003715e-05,-5.49609581183017e-05
-0.0015172720859809,0.000737237974240659,5.43640402186114e-05,-5.64050055062377e-05
-0.00152167090902751,0.000734698816221882,5.06754721045047e-05,-5.92705442065308e-05
-0.00153036126675375,0.000729143662997702,4.31030288465525e-05,-6.35625757249369e-05
-0.0015399814569939,0.000722467942384955,3.42843033964443e-05,-6.80138271837657e-05
-0.00154831418683017,0.000721848054042343,2.68046160729529e-05,-6.95738741790654e-05
-0.00155417928422566,0.000726282639877953,2.23527393352904e-05,-6.39590740545601e-05
-0.00155606279111283,0.00073908571833883,2.09526334518899e-05,-4.93241485749823e-05
-0.00155818471659331,0.000756657168665956,2.00962485100107e-05,-3.06601595687464e-05
-0.00156234512104661,0.000769996688961785,1.66451761910489e-05,-1.78984274709018e-05
-0.00156934270676033,0.000769591377353154,1.02969335643479e-05,-1.68069625714728e-05
-0.00157816419471289,0.000760829494048923,3.18370387714439e-06,-2.28863742078096e-05
-0.00158571014319123,0.000758063838366499,-4.03605618691313e-06,-2.66075681201011e-05
-0.0015946985241591,0.000760090396409654,-1.26632691709469e-05,-2.35404125419448e-05
-0.0016054154399285,0.000764882610135234,-2.1983153403001e-05,-1.67790943824645e-05
-0.00161340246280446,0.000769722507579476,-2.85593474790114e-05,-1.06713317064185e-05
-0.00161553630921461,0.000774860428265359,-3.13970124565285e-05,-5.94574077794985e-06
-0.00161993513226122,0.000777673767666445,-3.4590177916897e-05,-1.29525344332079e-06
-0.00162891159229944,0.00078103546983215,-4.21907426804118e-05,3.91386359169985e-06
-0.00163935432668652,0.000787806557882223,-5.2647050462325e-05,1.04054501211425e-05
-0.00164767513559312,0.000795638608672536,-6.06405166082308e-05,2.02008412411572e-05
-0.00165016660989324,0.000809001970827697,-6.24727032834781e-05,3.45944165847118e-05
-0.00164613733566626,0.000824844886353307,-5.77109783640904e-05,5.11807999450091e-05
-0.00163680324773808,0.000836062481168656,-4.80522133539854e-05,6.4195809220005e-05
-0.00162568102036005,0.000839352657756368,-3.72309208421039e-05,6.83571674680145e-05
-0.00161855230442001,0.000832736541791948,-2.97751681133952e-05,6.2809097422951e-05
-0.0016163707742912,0.000820207644713381,-2.66026540191658e-05,5.18269849287297e-05
-0.00161249647214988,0.000808227110399431,-2.32942042078154e-05,4.13623538219897e-05
-0.00160400877022795,0.00080052618983544,-1.56176547516195e-05,3.4331297737403e-05
-0.00159468660322944,0.000793910073871021,-5.33027340296469e-06,2.9647128787083e-05
-0.00158715257568077,0.000788819836903801,2.33157126219302e-06,2.59019268047771e-05
-0.00158239612474418,0.000785756157979736,5.22977779680427e-06,2.40998867502611e-05
-0.00158286104100114,0.000785470055667761,5.12697343672501e-06,2.52249781361292e-05
-0.00158445844557634,0.000785219716144783,3.80463918479544e-06,2.69744862029831e-05
-0.00158391008281172,0.000782704399985337,2.75617686655072e-06,2.58134405868743e-05
-0.0015803099620527,0.000777530716510458,5.59936136515452e-06,2.15605194801584e-05
-0.00157020101369625,0.000770187423836435,1.53746724949526e-05,1.6919575654615e-05
-0.00155626544691714,0.000764191196214628,2.86668727442379e-05,1.26548885472238e-05
-0.00154601344740471,0.000757801577913855,3.72645756944446e-05,6.61250824767821e-06
-0.00154426107074386,0.000746643587746834,3.75959533981449e-05,-1.76420108461752e-06
-0.00154749164268325,0.000736486955671725,3.46419335772679e-05,-9.30889972599331e-06
-0.00154508361489079,0.000732278867499761,3.42698644069291e-05,-1.32747890155375e-05
-0.00154343852659693,0.000728154225835456,3.53364948660074e-05,-1.50460585438394e-05
-0.00154372462890891,0.00072305206793857,3.26406431305991e-05,-1.76258992864703e-05
-0.00155123481459825,0.00071747307285506,2.5127898699801e-05,-2.13255081140286e-05
-0.00155611047483149,0.000713527245135739,1.72226155907403e-05,-2.4178148737653e-05
-0.00155880460493592,0.0007097959941504,1.27371182800942e-05,-2.53673050981208e-05
-0.00155998477697282,0.000706803840804329,1.07212530970719e-05,-2.60452175922397e-05
-0.00156053313973744,0.000703787845598927,7.86058993651665e-06,-2.72251816576733e-05
-0.00156240472569494,0.000701022189916503,2.97929204167817e-06,-2.82980377383692e-05
-0.00156680354874155,0.00070010427833225,-1.82997299412516e-06,-2.71845921704403e-05
-0.00156589755808696,0.000703167957256315,-4.07493764015834e-06,-2.12754057609649e-05
-0.0015640140511998,0.000713264984683095,-4.46983896435584e-06,-9.62142328411351e-06
-0.00156514653951803,0.000725805802691329,-7.18108447927909e-06,4.52365634006064e-06
-0.00157096395319485,0.000733661695340973,-1.55780087884032e-05,1.47865361139262e-05
-0.00158067951087233,0.000733208700013679,-2.79832709002869e-05,1.71369372613169e-05
-0.00158960828719188,0.000728774114178068,-3.90822452298764e-05,1.34900214777183e-05
-0.00159431705440981,0.000721514268011705,-4.54178184560105e-05,8.60590484807378e-06
-0.00159283885913127,0.000715506119460232,-4.74681705623417e-05,4.8618969883111e-06
-0.00158936986859857,0.000710535091789668,-4.63309612627356e-05,1.99900021270389e-06
-0.00158293256657914,0.000708115143067547,-4.16821487920227e-05,4.5418059639601e-07
-0.00157372960887728,0.000706625026859345,-3.45999392066737e-05,1.78050345256551e-06
-0.00156407365584812,0.000709176105807788,-2.91055636554067e-05,5.83133072468565e-06
-0.00156110534436139,0.000711691421967233,-2.7631229908669e-05,1.00648139904719e-05
-0.00155913839096656,0.000712263626591183,-2.68576749481549e-05,1.19728040485452e-05
-0.00154992351233503,0.000708317798871863,-2.16187491365465e-05,1.03690943787296e-05
-0.00153726348503014,0.000701558631751456,-1.20695909239683e-05,4.60417212587339e-06
-0.00152876386217856,0.000690591376459084,-3.54109508236268e-06,-4.8953064029888e-06
-0.0015213967276452,0.000678753893301123,4.5736302791405e-07,-1.50215312187497e-05
-0.00151660451391962,0.000671005289018469,1.67692754098379e-06,-2.16173873980946e-05
-0.00151450643029847,0.000667750875219755,3.26403501911052e-06,-2.36704981010027e-05
-0.00150939235147192,0.000666677991549849,5.87204175045325e-06,-2.36899509372675e-05
-0.00150383719824774,0.000665998498558909,8.8439029417918e-06,-2.31485773154323e-05
-0.00149815091479724,0.000667786638008752,1.23439076533891e-05,-2.02629016286231e-05
-0.00149354943594631,0.000673854391208553,1.63436206699849e-05,-1.38289158214224e-05
-0.00148649224558426,0.000680124800212669,1.94392944447703e-05,-6.4513607619509e-06
-0.00148500212937606,0.000684869330219586,2.07270826323061e-05,-1.10756775576688e-06
-0.00148241528763862,0.00068916086489921,2.16978958210934e-05,3.84254802157925e-06
-0.00147647866466514,0.000697958510992438,2.44409029913987e-05,1.29566374311057e-05
-0.00147172221372856,0.000712418598676836,2.84570012368732e-05,2.72889389718088e-05
-0.0014696956556854,0.000726223035229625,3.05307713967076e-05,4.22356802216895e-05
-0.0014690042417648,0.000736105485922425,2.77022503019883e-05,5.20264455118805e-05
-0.00147544154378423,0.000739479109017796,2.0197307484917e-05,5.44210693882835e-05
-0.0014838100364095,0.000734853788307535,1.21896803829014e-05,5.07270828122592e-05
-0.0014849902084464,0.000727510495633512,9.44558000386526e-06,4.31107437105744e-05
-0.00147798070180301,0.000717997593760347,1.43057762528693e-05,3.28146814939888e-05
-0.00146994599520838,0.000705313724596126,2.23915697558957e-05,2.00955152390112e-05
-0.0014659882465594,0.000692057650807956,2.62677437798988e-05,5.30304306638682e-06
-0.00146737107440061,0.000675690214377058,2.34320517743343e-05,-9.84115268699094e-06
-0.00147154339978358,0.000664866010240675,1.87558360189502e-05,-2.26738243695711e-05
-0.00147210368347786,0.000656771698997718,1.78639836895429e-05,-3.21264683939625e-05
-0.00146927842314711,0.000649166145871052,2.05451077752535e-05,-3.99529316316938e-05
-0.00146795519995422,0.000641238727643414,2.26880936790663e-05,-4.80279639372845e-05
-0.00146614321864505,0.00063664916972215,2.21612963073378e-05,-5.52498886441219e-05
-0.00147005328357537,0.000634574927960332,1.9589768018505e-05,-5.89677136475794e-05
-0.0014754892275029,0.000634336509367019,1.52167070630616e-05,-5.87715876306821e-05
-0.00148078212027443,0.000638461151031324,9.08858891792591e-06,-5.65277123101127e-05
-0.001485753147945,0.000644755401894772,3.72974050888311e-06,-5.3030033366576e-05
-0.00148870953850207,0.000651526489944845,2.52189332977745e-06,-4.73763514184134e-05
-0.00148712405485654,0.000659453908172483,5.01516734158274e-06,-3.98226268632474e-05
-0.00148416766429947,0.000669825116981573,7.35077643451444e-06,-3.22943826029321e-05
-0.00148463258055643,0.000679063837472429,7.7612012002407e-06,-2.53505605742533e-05
-0.00148620614327229,0.000688111823088635,7.86799205183373e-06,-1.76638588547956e-05
-0.00148727902694219,0.000697493594735479,7.70943233934275e-06,-9.81197696694296e-06
-0.00149153479883282,0.000703549427005614,3.95515778090103e-06,-5.63433333835012e-06
-0.00150032052399638,0.00070557598504877,-4.57315301090398e-06,-7.77275512896952e-06
-0.00151289710479361,0.00069923405046666,-1.35291630701784e-05,-1.3902105980412e-05
-0.00151731976969956,0.000697052520337851,-1.86637400287233e-05,-1.87890130250945e-05
-0.00152258882061176,0.0007010579527055,-2.19832875005139e-05,-1.76487529582756e-05
-0.00153012284816044,0.000714945835765948,-2.83852231421903e-05,-6.46579199043413e-06
-0.00154211530340405,0.000738692327659865,-3.80414263051245e-05,1.65955973950918e-05
-0.00155125865645758,0.000772154377231263,-4.62933252391213e-05,4.6446583699673e-05
-0.00155688533525976,0.000799047994556903,-5.02390062888392e-05,7.11275374221536e-05
-0.00155956754443452,0.000811946440455105,-5.13219780540032e-05,8.17463595997539e-05
-0.00156189212571932,0.000814092207794917,-5.13308162408402e-05,8.13258310701498e-05
-0.00156174907456333,0.000814616728700204,-4.96326005561757e-05,7.99430265349479e-05
-0.00155868539563926,0.000820601035392346,-4.53388070783499e-05,8.25760531270428e-05
-0.0015552760097549,0.00082633500256151,-3.92262259196875e-05,8.5946628661273e-05
-0.00155029306115467,0.000827360202512753,-3.22271010006289e-05,8.55550030444195e-05
-0.00154339084287827,0.000825655509570569,-2.4272979923959e-05,7.99473624390561e-05
-0.00153797874081008,0.000815999556541416,-1.58346370293575e-05,6.82034380542172e-05
-0.0015324235875859,0.000799191045712891,-8.64885663290499e-06,4.95411548760362e-05
-0.00152928838308384,0.000780248688474219,-3.53117448924536e-06,2.73812782176105e-05
-0.0015267015413464,0.000764215038073959,1.16257016614247e-06,8.81483576295065e-06
-0.00152311334151705,0.000754845187356781,7.6699767433977e-06,-2.62903604209454e-06
-0.00151511439771142,0.000749814555037889,1.62998014886275e-05,-1.02438743664577e-05
-0.00150939235147192,0.000743901773923741,2.55003232350614e-05,-1.85529056936114e-05
-0.00150312194246781,0.000737106844014337,3.3513412257441e-05,-2.83346057790464e-05
-0.00149936684962313,0.00072852377465509,3.93217133720523e-05,-3.89419605631506e-05
-0.00149791249620393,0.000717806858885697,4.27630533317241e-05,-5.10273871456565e-05
-0.00149922379846715,0.000708985370933137,4.42618261071316e-05,-6.38750579275155e-05
-0.00150100001698732,0.000701475185243796,4.39957760273385e-05,-7.36478767229379e-05
-0.00150598296558755,0.000697827380766116,4.1414025800439e-05,-7.75919308750097e-05
-0.00151329049547258,0.00070192818057109,3.63218414525063e-05,-7.70851766156807e-05
-0.0015213967276452,0.000708437008168519,3.00160006810089e-05,-7.37355698262066e-05
-0.00152965793190348,0.000716722054286125,2.41224652563763e-05,-6.59164567499536e-05
-0.00153694161992917,0.000732350393077754,1.87343026640808e-05,-5.26667377262545e-05
-0.00154438028004052,0.000749564215514911,1.32803850732958e-05,-3.7665484658855e-05
-0.00155093679135661,0.000764977977572559,8.82152472021244e-06,-2.50136359293174e-05
-0.00155403623306967,0.000777411507213801,7.30346494382878e-06,-1.3762317735223e-05
-0.00155526408882523,0.000790572213564647,8.33464915109382e-06,-1.32497203173983e-06
-0.00155653962829945,0.000805354166350017,8.87903445584805e-06,9.81657694177002e-06
-0.00156002053976181,0.000810515928895231,6.78572091168621e-06,1.4008007634637e-05
-0.00156556377205633,0.000808405924344416,2.80598330693092e-06,9.98639001956671e-06
-0.0015722990973174,0.000799918222422494,-1.34558648044751e-06,1.81205264178771e-06
-0.00157674560408268,0.000795185613345242,-4.85924652765031e-06,-6.90156080813816e-06
-0.0015798927295144,0.000787866162530551,-7.11611098338191e-06,-1.4727203121694e-05
-0.00158228883637719,0.000784289883630865,-7.38556808433152e-06,-1.88333604341441e-05
-0.00158314714331312,0.000789165543864104,-6.34657515082116e-06,-1.53690454297404e-05
-0.00158299217122747,0.000801038789811062,-5.86280315289275e-06,-5.00975994575826e-06
-0.00158386239909306,0.00081329350550732,-6.06463487519517e-06,6.10586399877092e-06
-0.00158481607346631,0.00082058911446268,-4.75022052536234e-06,1.28316919677285e-05
-0.00158240804567385,0.000822830249239817,-1.02012715458235e-06,1.542550847332e-05
-0.00157799730169757,0.000826215793264853,2.80649998172765e-06,1.65970394087572e-05
-0.00157680520873101,0.000828170825730015,4.72712010062853e-06,1.77119395966208e-05
-0.00157796153890857,0.000828695346635303,6.18872260082402e-06,1.94790661195584e-05
-0.00157480249254718,0.000832831909229273,9.20523381651179e-06,2.30463929940197e-05
-0.00157035598578191,0.000839364578686033,1.23220678400086e-05,2.80209843403687e-05
-0.00157252559498105,0.000842428257610098,1.25823841646558e-05,3.15547456816003e-05
-0.00157501706928116,0.000841188480924873,1.02909907001525e-05,3.14866250202782e-05
-0.00157669792036402,0.000839197685670715,8.40300559473033e-06,2.89764963821482e-05
-0.00157692441802766,0.000837254574135218,7.48835206795837e-06,2.66656463713651e-05
-0.00158087024574698,0.000835037281217413,4.56023465231711e-06,2.57463716085146e-05
-0.00158823738028034,0.000835108806795407,-2.65011467336597e-06,2.60993115970379e-05
-0.00159801254260615,0.0008355618021227,-1.30079002853857e-05,2.78518450219148e-05
-0.00160813341189226,0.00083891158335874,-2.42648975967343e-05,3.13454089956157e-05
-0.00162007818341721,0.000843215038968029,-3.54756149830086e-05,3.62291489968352e-05
-0.00163021097363299,0.000845801880705469,-4.59013908534105e-05,4.11903936399857e-05
-0.0016369701407534,0.000847673466662971,-5.35840106886571e-05,4.39301606183366e-05
-0.0016384602569616,0.000844633629598238,-5.67626012694647e-05,4.17342621407726e-05
-0.00163834104766494,0.000835156490514069,-5.58137897199476e-05,3.36921529910188e-05
-0.0016346097966796,0.000821399737679943,-5.28345729269468e-05,2.23426085893798e-05
-0.00163004408061767,0.000808417845274081,-5.02852229997202e-05,1.13848336421322e-05
-0.00162966261086837,0.00079821352948031,-5.06228305072661e-05,1.7603846582531e-06
-0.0016342283269303,0.000785577344034752,-5.53999451013066e-05,-8.17996850134778e-06
-0.00164041528942676,0.000772392795824575,-6.27368285194654e-05,-1.89146509650205e-05
-0.00164229879631393,0.000759947345253667,-6.65896442517311e-05,-2.86463897725234e-05
-0.00163586149429449,0.000751602694487732,-6.10954168144339e-05,-3.609882731389e-05
-0.00162073383454882,0.000742661997238517,-4.64716793849734e-05,-4.17821286940188e-05
-0.00160192260753647,0.000735294862705163,-2.92556481978212e-05,-4.59682186578867e-05
-0.00158652076640849,0.000730741067572896,-1.58745682131814e-05,-4.80084827923559e-05
-0.00157706746918365,0.000728666825811078,-7.09034695065377e-06,-4.83459870591418e-05
-0.0015681029300751,0.000724840207388413,2.65998923002906e-07,-4.85423513053195e-05
-0.00155986556767616,0.000721180481981068,7.7455012664218e-06,-4.83839015915783e-05
-0.00155040034952166,0.00072228912843997,1.42707155298632e-05,-4.56132884498816e-05
-0.00154372462890891,0.000724673314373095,2.04594676600233e-05,-3.96251409316064e-05
-0.0015331507642955,0.00072822575141345,3.01319579341157e-05,-3.26932888206831e-05
-0.00151555547210905,0.000731623216368152,4.49691282390272e-05,-2.61759408205969e-05
-0.00149917611474848,0.000736033960344431,6.0175672461172e-05,-1.84073180052472e-05
-0.00148899564081404,0.000743103071636145,6.93116422697442e-05,-8.38992258599988e-06
-0.00148440608289278,0.000748705908578986,7.25948876298857e-05,9.77048533813361e-07
-0.00147756346926471,0.000750756308481473,7.63824916612324e-05,5.99139082113941e-06
-0.00146967181382607,0.000747740313276071,8.42824039985174e-05,6.96145309135902e-06
-0.00145931252594665,0.000745797201740575,9.30831282208197e-05,7.81065613415968e-06
-0.00145120629377403,0.000747001215636803,9.85577334307507e-05,1.21008221384505e-05
-0.00144853600552893,0.000751507327050407,0.000100399961887929,2.09945710015937e-05
-0.0014492751031682,0.000761306331235548,9.85132919445607e-05,3.34425097640996e-05
-0.00145702370745085,0.000771379516802997,8.90835335385417e-05,4.63450265999895e-05
-0.00147428521360667,0.000776779697941524,6.95749484176151e-05,5.58060548699199e-05
-0.00149809131014891,0.000778269814149726,4.51839656658595e-05,6.01814006318354e-05
-0.00151733169062923,0.000776350544473561,2.4759107110198e-05,6.10436235821481e-05
-0.0015289903598422,0.000772035167934606,1.10264398337026e-05,5.997427758819e-05
-0.00153832444777038,0.000764954135713228,-1.88506922604693e-07,5.60936777678847e-05
-0.00154970893560105,0.000755322024543406,-1.14199750064826e-05,4.85069740046775e-05
-0.00155605087018316,0.000742507025152864,-1.98255996214158e-05,3.95446728523871e-05
-0.00155696878176741,0.000734853788307535,-2.30360262268606e-05,3.32778325785854e-05
-0.00155739793523538,0.000729799314129312,-2.33525957008547e-05,3.16220951020708e-05
-0.00155570516322286,0.000729608579254662,-2.35150443381868e-05,3.35016905074904e-05
-0.00155352363309405,0.000730657621065236,-2.26574824837328e-05,3.6646345638491e-05
-0.00154941091235941,0.000730490728049918,-2.00008813977775e-05,3.83905072195202e-05
-0.0015480280845182,0.000725376649223366,-1.93497594793209e-05,3.59144988853186e-05
-0.00155280837731411,0.000716078324084182,-2.56526322764449e-05,2.79685508414852e-05
-0.00156430015351177,0.000703322929341968,-3.83697136154196e-05,1.60498988326933e-05
-0.0015765310273487,0.000687253516152711,-5.1668190536314e-05,2.56135420556787e-06
-0.00158445844557634,0.000671649019220413,-6.06988235614036e-05,-1.14098986035983e-05
-0.0015871764175401,0.000658559838447561,-6.51342027725708e-05,-2.53657666760969e-05
-0.00158895263606028,0.000643897094958847,-6.69599960082119e-05,-3.781568495684e-05
-0.00158724794311809,0.000633096732681795,-6.71726320993753e-05,-4.70531745656443e-05
-0.00158345708748442,0.000628542937549528,-6.49230580747042e-05,-5.25177596808876e-05
-0.00157736549242529,0.000626134909757072,-5.87339270708351e-05,-5.41726785379879e-05
-0.00156602868831329,0.00062801841664424,-4.88319895760551e-05,-5.20788557392663e-05
-0.00155396470749168,0.000630819835115661,-3.88056303583153e-05,-4.81783424812606e-05
-0.00154848107984549,0.000633811988461732,-3.34613421081682e-05,-4.67583907802596e-05
-0.0015479923217292,0.000629758872375421,-3.37429290688618e-05,-5.08218695091316e-05
-0.00154794463801054,0.000622022189022433,-3.53018137802778e-05,-5.88418011950888e-05
-0.00154478559164915,0.000614333189388108,-3.3592149055851e-05,-6.66835144034325e-05
-0.00153977880118959,0.000610518491895109,-2.84958497898525e-05,-7.15037461049396e-05
-0.00153199443411794,0.000612282789485621,-2.1893830987957e-05,-7.24227395049512e-05
-0.00152125367648921,0.000614202059161786,-1.30465307167559e-05,-6.94878438280132e-05
-0.00150816449571636,0.00062053207281423,-7.17305367755261e-08,-6.42982801574379e-05
-0.00149239310576875,0.000627982653855244,1.50448286034618e-05,-5.99563519141879e-05
-0.00147863635293462,0.000631392039739611,2.69746105215563e-05,-5.80437299955158e-05
-0.00147254475787549,0.000631988086222892,3.30579297791633e-05,-5.71989214495998e-05
-0.00146822938133653,0.000635218658162275,3.58711146564632e-05,-5.65117011638411e-05
-0.00146458157685885,0.000637745895251387,3.94707197077117e-05,-5.74483003812584e-05
-0.00145665415863121,0.000636494197636497,4.57610223726496e-05,-5.93058732677216e-05
-0.00144782074974899,0.000641298332291742,5.45093207279133e-05,-5.59503699967436e-05
-0.00143804558742318,0.00065834526171358,6.33676383543076e-05,-4.20756189666062e-05
-0.0014335990806579,0.000681805651295522,6.69967879604132e-05,-2.10733483608778e-05
-0.00144007214546634,0.000702869934014674,5.99700579405746e-05,-1.70475252413119e-06
-0.00145680913071687,0.000718522114665634,4.29635201005324e-05,1.1824666615441e-05
-0.00147513159961293,0.000730383439682927,2.37243555222849e-05,2.11715320614946e-05
-0.00148845919897909,0.000738811536956521,9.72027490495312e-06,2.65228109911358e-05
-0.00149669656137804,0.000739407583439802,1.645045742865e-06,2.5115975066734e-05
-0.00150187024485291,0.000734496160417566,-4.03006850695428e-06,1.83568635873804e-05
-0.00150533923538561,0.000732648416319395,-8.43410185302196e-06,1.37922137893855e-05
-0.00150625714696986,0.000739181085776155,-9.25123799644158e-06,1.68395948389691e-05
-0.00150245437040653,0.000749099299257952,-5.32245441250649e-06,2.53004117143608e-05
-0.00149642237999573,0.00076048378708862,5.3673065699718e-07,3.4916250149273e-05
-0.00149210700345677,0.000774729298039037,3.70500959829987e-06,4.57733965121342e-05
-0.00149508723587318,0.000791955041405859,1.59239235845885e-06,5.98366786096522e-05
-0.00150200137507924,0.00080839400341475,-4.39518094134569e-06,7.62847731130205e-05
-0.00150589951907989,0.00082883839779129,-9.95779734310069e-06,9.31852738414794e-05
-0.00150829562594268,0.000849020531715186,-1.17796070707155e-05,0.000110312029972371
-0.00150913009101928,0.000865578703020734,-1.10257942703674e-05,0.000126143611214543
-0.00150924930031593,0.00087664132575043,-1.17883632969348e-05,0.000135105875228708
-0.00151277789549696,0.000877666525701673,-1.54376261487518e-05,0.0001326604145478
-0.00151737937434789,0.000867152265736596,-1.85416597215848e-05,0.000121524268112328
-0.00151668796042728,0.000855934670921246,-1.77519422157873e-05,0.00010857972103895
-0.00151436337914249,0.000847411206210327,-1.44333378588478e-05,9.67662444813301e-05
-0.00151219376994334,0.000835049202147079,-1.20733557467781e-05,8.39072425280925e-05
-0.00151191958856103,0.000820910979563652,-1.0979864851764e-05,6.84219109438201e-05
-0.00151081094210213,0.000807476091830497,-8.54445592199232e-06,5.18529303969906e-05
-0.00150706777018713,0.000791835832109203,-3.59956133624805e-06,3.57446266972984e-05
-0.00150083312397201,0.00077681546073052,2.56796675791906e-06,1.96943654387402e-05
-0.0014959813055981,0.000762736842795422,8.81394088849127e-06,3.06595180335481e-06
-0.00149225005461276,0.000746440931942518,1.46719870036369e-05,-1.39416379374509e-05
-0.00148899564081404,0.000730609937346574,1.8798547694515e-05,-3.09740460670235e-05
-0.00148772010133982,0.000715851826420535,2.01371114923112e-05,-4.6883725075382e-05
-0.00148944863614134,0.000705337566455458,2.05139853289923e-05,-5.87587552345607e-05
-0.00149031886400693,0.000701272529439481,2.27096886739755e-05,-6.43229872105091e-05
-0.00148659953395125,0.000700128120191581,2.56283576743312e-05,-6.54024794686909e-05
-0.0014891506128997,0.000700247329488237,2.47855515241695e-05,-6.66910134946723e-05
-0.00149847277989821,0.000698030036570432,1.84287929839661e-05,-7.09578302756146e-05
-0.00150837907245034,0.000691688101988322,9.99949256743512e-06,-7.70590870032524e-05
-0.0015152932116564,0.000687110464996723,3.48144155302282e-06,-8.16381484030058e-05
-0.00152164706716818,0.000691330474098353,-5.41570643077919e-07,-8.05514856786676e-05
-0.00152655849019042,0.000701427501525134,-2.97301226199925e-06,-7.04603295863175e-05
-0.00152908572727953,0.000717890305393356,-3.82481910337419e-06,-5.31726114445589e-05
-0.00152986058770779,0.000735390230142488,-3.80437142544245e-06,-3.78652471006649e-05
-0.00153363952241179,0.000741076513592989,-5.1746081268701e-06,-3.42007627172395e-05
-0.0015396715128226,0.00073159937450882,-8.39628696329309e-06,-4.19226340378497e-05
-0.00154291400569165,0.000724291844623795,-1.03644782831903e-05,-5.08084029293782e-05
-0.00154216298712271,0.000724637551584098,-8.66735585394455e-06,-5.21571058869771e-05
-0.00154228219641937,0.000730192704808277,-5.38718230318226e-06,-4.69411276848139e-05
-0.00154262790337967,0.000735950513836772,-3.83942727623727e-06,-4.12692731035717e-05
-0.00154347428938593,0.000740361257813052,-3.74677703686469e-06,-3.75543697999521e-05
-0.00154545316371043,0.000747394606315768,-3.15638237217682e-06,-3.27513875664026e-05
-0.00154801616358853,0.000756847903540605,-3.41851672241302e-06,-2.27538212740351e-05
-0.00155364284239071,0.000774586246883049,-7.93400518418112e-06,-6.07607049113409e-06
-0.00156496772557305,0.00079581742261752,-1.62307849928812e-05,1.48458024066642e-05
-0.00157276401357436,0.000817096282070654,-2.32794686626482e-05,3.39286416197e-05
-0.00157738933428462,0.000827741672262053,-2.55106587154938e-05,4.49284240895881e-05
-0.00157864103189951,0.000830340434929158,-2.44819204928265e-05,4.67444617773943e-05
-0.00157907018536748,0.000828325797815668,-2.35579554700228e-05,4.37680580562827e-05
-0.00158056030157568,0.000825607825851907,-2.34786259975047e-05,3.96831892419808e-05
-0.00158152589687859,0.000819659281948762,-2.25471082840848e-05,3.33866851298687e-05
-0.001580655669013,0.000809598017310978,-1.94223696480913e-05,2.2925452459894e-05
-0.00157701978546499,0.000798177766691313,-1.43890133489369e-05,1.05583060589793e-05
-0.00157176265548245,0.000789928483362703,-8.77963409180384e-06,7.31478852290172e-07
-0.00156955728349431,0.000784397171997855,-3.77888343467299e-06,-5.09495457799824e-06
-0.00156736383243584,0.000780499027997197,9.24400411861731e-07,-8.5353174415602e-06
-0.00155969867466084,0.000780308293122547,7.22981436115292e-06,-1.08181653758894e-05
-0.0015529871912591,0.000779938744302913,1.62088291422076e-05,-1.23031252048896e-05
-0.00154690751712963,0.000777304218846811,2.57464751641602e-05,-1.38279273589524e-05
-0.00153898009890199,0.00077738766535447,3.206559343857e-05,-1.5074621153666e-05
-0.00153919467563597,0.000780475186137866,3.36511947358273e-05,-1.29773958961963e-05
-0.00154193648945907,0.000788259553209517,3.22773279489642e-05,-5.66278898384472e-06
-0.00154527434976544,0.000796413469100801,3.02782038677664e-05,3.0048675269968e-06
-0.00154714593572294,0.00080128912933404,2.85190543063776e-05,7.1940234128163e-06
-0.00154881486587613,0.000802266645566621,2.71023990886158e-05,7.14054499982249e-06
-0.00155123481459825,0.000803542185040843,2.60823492458186e-05,8.79946697062484e-06
-0.00155353555402372,0.000809228468491344,2.48927466863431e-05,1.49967276432381e-05
-0.00155497798651326,0.000816941309985,2.27339883546965e-05,2.16871405456559e-05
-0.00155770787940668,0.000818920184309493,2.01930945408095e-05,2.43894353684455e-05
-0.00155991325139482,0.000818264533177884,1.90530799607381e-05,2.35472025993999e-05
-0.00155956754443452,0.000815296221691145,1.99687673042427e-05,2.09737663873583e-05
-0.00155671844224444,0.000808632422008063,2.18034070640502e-05,1.54812740399392e-05
-0.00155422696794432,0.000799810934055503,2.37410301990515e-05,6.13358391762473e-06
-0.00155284414010311,0.000790309953112003,2.62625453260604e-05,-3.13779985178485e-06
-0.00155072221462263,0.00078362231156959,2.90195482544098e-05,-6.8444359542545e-06
-0.00154727706594927,0.000786829041649642,2.92489755377908e-05,-4.79098239499769e-06
-0.00155360707960171,0.000788474129943498,2.36478127288281e-05,-1.85660647036501e-06
-0.00156726846499851,0.00078727011604727,1.10941675377669e-05,-1.48149657313658e-06
-0.0015837789525854,0.000784325646419862,-7.0763386805937e-06,-2.73680517635852e-06
-0.0016023994447231,0.000783097790664303,-2.81926395000765e-05,-3.73710471847788e-06
-0.00162415514136285,0.000779926823373248,-4.86739379547478e-05,-4.62421969807603e-06
-0.00163961658713916,0.00077719693047982,-6.4692942853889e-05,-6.23344199333367e-06
-0.00164692411702419,0.000772810028362872,-7.41797283919842e-05,-8.08342451792063e-06
-0.00164937982853531,0.000771021888913029,-7.81117567830792e-05,-8.83720878863384e-06
-0.00165058384243154,0.000769960926172788,-7.9096361211602e-05,-7.57756981478957e-06
-0.00164924869830899,0.000771606014466644,-7.90186570658727e-05,-4.1412197250923e-06
-0.00164662609378255,0.000774025963188765,-7.84892049713847e-05,8.83569969371381e-07
-0.00164463529852839,0.000777125404901827,-7.76624705838927e-05,6.50512367002453e-06
-0.00164247761025891,0.000781965302346069,-7.64160381268847e-05,1.26344136307094e-05
-0.00163844833603193,0.000787031697453958,-7.39312696653888e-05,2.05667205879675e-05
-0.00163248787119912,0.000793492841332724,-6.91331781047763e-05,3.07166816998703e-05
-0.00162273655073265,0.000801575231646015,-6.20024230101491e-05,4.03296927421752e-05
-0.0016141534813734,0.000804460096625095,-5.41205517983673e-05,4.5417890944705e-05
-0.00160591611897445,0.000800740766569422,-4.71555023502189e-05,4.51072575104481e-05
-0.00159697542172524,0.000793957757589683,-4.00347298543286e-05,4.2194558240158e-05
-0.00158216962708054,0.000789630460121063,-2.79736249816683e-05,3.90244226109328e-05
-0.00155990133046516,0.000782680558126006,-6.24856031589897e-06,3.48462709084303e-05
-0.00152862081102257,0.000772142456301597,2.37008419313083e-05,2.83427216518277e-05
-0.00149675616602636,0.000761437461461869,5.31931138906048e-05,2.11380427060569e-05
-0.00147439250197366,0.000756657168665956,7.31739470568352e-05,1.699584029211e-05
-0.00146536835821678,0.000753653094390219,8.15284027089753e-05,1.78380519892459e-05
-0.00146342524668129,0.000753152415344263,8.22350764066953e-05,2.16298417446957e-05
-0.00146346100947028,0.000754141852506509,7.92006510865678e-05,2.42041297224635e-05
-0.00146679886977666,0.000750279471294848,7.42051422279712e-05,2.26813653679e-05
-0.00147066125098832,0.000741148039170983,6.96967124044956e-05,1.72049202054396e-05
-0.00146963605103708,0.000730800672221224,6.86016844500366e-05,9.68670749436336e-06
-0.00146617898143405,0.000719463868109218,7.00664551622393e-05,1.0809630893686e-06
-0.00146501073032682,0.000707411808217276,6.94855028029674e-05,-9.54933453276277e-06
-0.00146840819528152,0.000690650981107413,6.48229637851198e-05,-2.26828483319077e-05
-0.00147260436252382,0.000675129930682774,5.94003717994954e-05,-3.56626354556272e-05
-0.00147362956247506,0.000664591828858365,5.61352303216321e-05,-4.38930981707766e-05
-0.00147494086473828,0.000662469903377885,5.27783695517928e-05,-4.52263900773714e-05
-0.00148118743188306,0.00066161159644196,4.62499742841865e-05,-4.21007262398449e-05
-0.00148723134322353,0.000663340131243475,3.83136020969346e-05,-3.85784501299155e-05
-0.0014910221988572,0.000665044824185659,3.24089189158529e-05,-3.61363910870442e-05
-0.00149488458006886,0.000665426293934959,2.72513377652591e-05,-3.34756374056076e-05
-0.00150275239364817,0.00066640381016754,1.88762556125769e-05,-2.99474599611681e-05
-0.00151129970021842,0.000668501893788689,7.9070181188444e-06,-2.74855007052876e-05
-0.00151903638357141,0.000666177312503893,-8.24190754375383e-07,-2.83236634084676e-05
-0.00152312526244672,0.000661027470888345,-6.04448674326666e-06,-3.1581359247472e-05
-0.00152714261574403,0.000658905545407864,-1.17839734386284e-05,-3.33115521629516e-05
-0.0015339852293721,0.00066093210345102,-1.98284276414548e-05,-3.01715882472194e-05
-0.00153990993141591,0.000667727033360424,-2.57881184776362e-05,-2.24398895666626e-05
-0.00153667935947653,0.000676739256187633,-2.5927703906277e-05,-1.32923501702936e-05
-0.00153448590841805,0.000682759325668771,-2.38699895085091e-05,-6.02825739652585e-06
-0.00153718003852248,0.000687050860348395,-2.62468076199169e-05,-2.57368287400836e-06
-0.00154144773134278,0.000684845488360255,-3.39011580402581e-05,-3.56167163106093e-06
-0.00154852876356416,0.00068072084669595,-4.15605449891492e-05,-8.26436011338382e-06
-0.0015525341959318,0.000674402753973171,-4.53173754699682e-05,-1.46324070317069e-05
-0.0015517712564332,0.000668740312382001,-4.66528389935016e-05,-2.07961732374541e-05
-0.00155299911218876,0.00066324476380615,-4.89111723619528e-05,-2.64843982754204e-05
-0.00155650386551046,0.000658404866361908,-5.29340158084384e-05,-3.17081473707914e-05
-0.00155934104677087,0.000656855145505377,-5.71647930877405e-05,-3.46253771329511e-05
-0.00156188020478965,0.000659382382594489,-5.9921189530575e-05,-3.30049613029826e-05
-0.00156095037227573,0.000664567986999034,-6.02573603854144e-05,-2.77568040908817e-05
-0.00155692109804875,0.000672280828492691,-5.7654456470331e-05,-2.2016818890286e-05
-0.00155125865645758,0.000680184404860997,-5.18908795666939e-05,-1.59461687299501e-05
-0.00154149541506144,0.000690197985780119,-4.29748458434914e-05,-5.9489158973073e-06
-0.00152835855056992,0.000707292598920619,-3.10904203245847e-05,8.91996862129718e-06
-0.00151371964894054,0.000723087830727567,-1.71046815929947e-05,2.32806929679212e-05
-0.00149910458917049,0.000733363672099332,-3.03078418276394e-06,3.14639964656716e-05
-0.0014872432641532,0.000737130685873668,8.76757469214511e-06,3.41763017579809e-05
-0.00147752770647572,0.000739812895048433,1.70418268347989e-05,3.47268693843453e-05
-0.00147192486953288,0.000738370462558893,2.20575839234347e-05,3.1241591183904e-05
-0.00146906384641313,0.000728285356061778,2.48028603965545e-05,1.91366202147617e-05
-0.00146762141392359,0.000712370914958174,2.62208245968854e-05,1.26011257206976e-06
-0.00146586903726274,0.000701725524766774,2.67242814986223e-05,-1.12171282505909e-05
-0.00146596440470006,0.000704658073464517,2.57562238818211e-05,-1.08341393579477e-05
-0.00147055396262133,0.000715410752022907,2.23123078547007e-05,-2.19116152240874e-06
-0.00147521504612059,0.000724720998091757,1.6739732328772e-05,4.64354470582079e-06
-0.00147978076218252,0.000726914449150231,1.13944419955782e-05,5.33060261728448e-06
-0.00148280867831759,0.0007272720770402,8.2503014043249e-06,2.98359628532717e-06
-0.00148519286425071,0.000730025811792958,6.37756831559865e-06,2.64364060984548e-06
-0.00148810157108912,0.000736999555647347,3.60505914275494e-06,8.2388292764638e-06
-0.00148980626403131,0.000752735182805966,6.46707395850282e-07,2.21336756091509e-05
-0.00148938903149301,0.000776755856082192,1.24987022978328e-06,4.24200475464881e-05
-0.00148535975726603,0.000797653245786026,7.12410343815884e-06,6.13526016860428e-05
-0.00147647866466514,0.000808596659219066,1.46730072449091e-05,7.09303925984763e-05
-0.00147229441835251,0.000811016607941187,1.87700613797308e-05,7.04805675819256e-05
-0.00147339114388175,0.000809049654546359,1.86775396293398e-05,6.57224959684521e-05
-0.00147526272983925,0.000805985975622295,1.78200040897335e-05,6.06029710092137e-05
-0.00147445210662199,0.000800263929382797,1.79660879571808e-05,5.36009479940185e-05
-0.00147649058559481,0.000792205380928837,1.64668232257429e-05,4.24673595630639e-05
-0.00148332127829321,0.00078141693958145,1.05916703208237e-05,2.88648818664683e-05
-0.00149260768250273,0.000769662902931148,2.59321239856049e-06,1.65698858655572e-05
-0.00149672040323737,0.000763809726465328,-1.93185191139405e-06,7.61490132689334e-06
-0.00149616011954308,0.000760507628947951,-3.68613255249454e-07,2.06324594568919e-06
-0.00149290570574437,0.000759291694122058,4.19280199039687e-06,-3.60281272497875e-07
-0.00149101027792753,0.000761520907969529,6.92785219991393e-06,-7.82260027040604e-07
-0.00149264344529172,0.000761699721914513,6.39625451868097e-06,-2.62835898145086e-06
-0.00149421700800759,0.000754749819919456,4.81271884871684e-06,-1.03181114050358e-05
-0.00149686345439335,0.000742995783269154,4.40670603148479e-06,-2.54090861944783e-05
-0.00149776944504794,0.000725424332942029,5.01243307937619e-06,-4.4227247145331e-05
-0.00149757871017329,0.000710523170860003,5.09212528717728e-06,-6.01115486741539e-05
-0.00150059470537869,0.000704145473488895,3.92976023681137e-06,-6.90291400582764e-05
-0.00150370606802142,0.000701761287555771,2.41157434961315e-06,-7.30727029665008e-05
-0.00150545844468227,0.000698983710943682,2.20825540178312e-06,-7.71323864934186e-05
-0.00150408753777072,0.000695419352973661,4.46497212431296e-06,-8.18548739667468e-05
-0.0015004874170117,0.00069702867847852,9.01287200930637e-06,-8.22790265275755e-05
-0.00149749526366563,0.000706207794321048,1.48524738375017e-05,-7.49929422608276e-05
-0.00149186858486346,0.000717568440292385,2.15832163839654e-05,-6.37177427762821e-05
-0.00148416766429947,0.000729000611841715,2.97443074781961e-05,-5.41117290254799e-05
-0.00147782572971736,0.000740444704320711,3.87247969955122e-05,-4.49498810754688e-05
-0.00147315272528843,0.000755643889644378,4.46702742779458e-05,-2.97242664643246e-05
-0.00147744425996806,0.000779223488522976,4.23786638960764e-05,-7.13486986888635e-06
-0.00148977050124231,0.00080444817569543,3.05771845379465e-05,1.55667527336215e-05
-0.00150812873292737,0.00082086329584499,1.45211627155045e-05,3.17880807290079e-05
-0.00152252921596344,0.000832378913901979,1.88885841037154e-06,4.32029766112585e-05
-0.00152965793190348,0.000846457531837078,-4.06188528759024e-06,5.46033070885323e-05
-0.00153369912706012,0.00085753207549644,-6.58317972658815e-06,6.52701581384992e-05
