Time_s,BCL_Envelope_Raw,BCC_Envelope_Raw
0,9.62504061069344e-07,2.17238977856269e-06
0.0005,1.02028737629517e-06,2.56169160279936e-06
0.001,1.07813118839467e-06,2.95098704578592e-06
0.0015,1.13602980278928e-06,3.34023578873442e-06
0.002,1.19397751216517e-06,3.72939751542768e-06
0.0025,1.25196859778778e-06,4.11843192214109e-06
0.003,1.30999733081959e-06,4.50729872756445e-06
0.0035,1.36805797364053e-06,4.89595768271925e-06
0.004,1.42614478117043e-06,5.28436858086658e-06
0.0045,1.48425200219288e-06,5.67249126740136e-06
0.005,1.54237388068007e-06,6.060285649728e-06
0.0055,1.60050465711784e-06,6.4477117071134e-06
0.006,1.65863856983057e-06,6.83472950051236e-06
0.0065,1.71676985630534e-06,7.22129918236145e-06
0.007,1.77489275451477e-06,7.60738100633653e-06
0.0075,1.83300150423815e-06,7.99293533706995e-06
0.008,1.89109034838031e-06,8.37792265982311e-06
0.0085,1.94915353428776e-06,8.76230359011036e-06
0.009,2.00718531506172e-06,9.14603888327031e-06
0.0095,2.06517995086752e-06,9.5290894439808e-06
0.01,2.12313171024006e-06,9.91141633571387e-06
0.0105,2.1810348713848e-06,1.02929807901272e-05
0.011,2.23888372347411e-06,1.06737442163888e-05
0.0115,2.29667256793839e-06,1.10536682104308e-05
0.012,2.3543957197518e-06,1.14327145641308e-05
0.0125,2.41204750871214e-06,1.18108452744151e-05
0.013,2.46962228071454e-06,1.21880225522824e-05
0.0135,2.52711439901857e-06,1.25642088317442e-05
0.014,2.58451824550845e-06,1.29393667786788e-05
0.0145,2.64182822194591e-06,1.33134592995944e-05
0.015,2.69903875121537e-06,1.36864495503006e-05
0.0155,2.75614427856099e-06,1.40583009444831e-05
0.016,2.81313927281521e-06,1.44289771621791e-05
0.0165,2.87001822761844e-06,1.4798442158151e-05
0.017,2.92677566262952e-06,1.5166660170154e-05
0.0175,2.98340612472654e-06,1.55335957270955e-05
0.018,3.0399041891978e-06,1.58992136570835e-05
0.0185,3.0962644609225e-06,1.62634790953596e-05
0.019,3.15248157554093e-06,1.66263574921148e-05
0.0195,3.20855020061389e-06,1.69878146201849e-05
0.02,3.2644650367709e-06,1.73478165826216e-05
0.0205,3.32022081884719e-06,1.77063298201369e-05
0.021,3.37581231700893e-06,1.8063321118419e-05
0.0215,3.43123433786659e-06,1.84187576153133e-05
0.022,3.48648172557613e-06,1.87726068078701e-05
0.0225,3.54154936292778e-06,1.91248365592513e-05
0.023,3.59643217242216e-06,1.9475415105498e-05
0.0235,3.65112511733351e-06,1.98243110621519e-05
0.024,3.70562320275985e-06,2.01714934307314e-05
0.0245,3.75992147665964e-06,2.05169316050585e-05
0.025,3.81401503087501e-06,2.0860595377435e-05
0.0255,3.86789900214099e-06,2.12024549446657e-05
0.026,3.92156857308068e-06,2.15424809139279e-05
0.0265,3.975018973186e-06,2.1880644308485e-05
0.027,4.02824547978382e-06,2.22169165732437e-05
0.0275,4.08124341898707e-06,2.25512695801539e-05
0.028,4.13400816663069e-06,2.288367563345e-05
0.0285,4.18653514919209e-06,2.32141074747347e-05
0.029,4.23881984469567e-06,2.35425382879029e-05
0.0295,4.29085778360133e-06,2.38689417039066e-05
0.03,4.34264454967649e-06,2.41932918053607e-05
0.0305,4.39417578085131e-06,2.45155631309884e-05
0.031,4.44544717005687e-06,2.48357306799063e-05
0.0315,4.49645446604582e-06,2.51537699157497e-05
0.032,4.54719347419535e-06,2.54696567706371e-05
0.0325,4.59766005729193e-06,2.57833676489743e-05
0.033,4.64785013629754e-06,2.60948794310989e-05
0.0335,4.69775969109718e-06,2.64041694767646e-05
0.034,4.74738476122701e-06,2.6711215628468e-05
0.0345,4.79672144658317e-06,2.7015996214616e-05
0.035,4.84576590811071e-06,2.73184900525376e-05
0.0355,4.89451436847242e-06,2.76186764513392e-05
0.036,4.94296311269724e-06,2.79165352146058e-05
0.0365,4.99110848880789e-06,2.82120466429486e-05
0.037,5.03894690842739e-06,2.8505191536401e-05
0.0375,5.08647484736412e-06,2.87959511966629e-05
0.038,5.13368884617503e-06,2.90843074291968e-05
0.0385,5.18058551070679e-06,2.93702425451738e-05
0.039,5.22716151261445e-06,2.9653739363274e-05
0.0395,5.27341358985748e-06,2.99347812113393e-05
0.04,5.31933854717308e-06,3.02133519278811e-05
0.0405,5.36493325652654e-06,3.04894358634446e-05
0.041,5.41019465753879e-06,3.07630178818273e-05
0.0415,5.45511975789091e-06,3.10340833611569e-05
0.042,5.49970563370584e-06,3.13026181948248e-05
0.0425,5.54394942990709e-06,3.15686087922795e-05
0.043,5.58784836055452e-06,3.18320420796781e-05
0.0435,5.63139970915716e-06,3.20929055003982e-05
0.044,5.67460082896311e-06,3.23511870154092e-05
0.0445,5.71744914322634e-06,3.26068751035055e-05
0.045,5.75994214545064e-06,3.28599587614009e-05
0.0455,5.80207739961045e-06,3.31104275036853e-05
0.046,5.84385254034879e-06,3.3358271362645e-05
0.0465,5.88526527315231e-06,3.36034808879464e-05
0.047,5.92631337450349e-06,3.38460471461852e-05
0.0475,5.96699469201018e-06,3.4085961720301e-05
0.048,6.00730714451282e-06,3.43232167088588e-05
0.0485,6.04724872216929e-06,3.45578047251982e-05
0.049,6.08681748651808e-06,3.4789718896451e-05
0.0495,6.12601157051982e-06,3.50189528624283e-05
0.05,6.16482917857766e-06,3.52455007743776e-05
0.0505,6.20326858653681e-06,3.54693572936106e-05
0.051,6.24132814166372e-06,3.56905175900022e-05
0.0515,6.27900626260506e-06,3.59089773403616e-05
0.052,6.31630143932709e-06,3.6124732726676e-05
0.0525,6.35321223303551e-06,3.63377804342273e-05
0.053,6.38973727607636e-06,3.65481176495838e-05
0.0535,6.42587527181817e-06,3.67557420584658e-05
0.054,6.46162499451562e-06,3.69606518434883e-05
0.0545,6.49698528915527e-06,3.71628456817804e-05
0.055,6.53195507128338e-06,3.73623227424834e-05
0.0555,6.56653332681633e-06,3.75590826841281e-05
0.056,6.6007191118339e-06,3.77531256518935e-05
0.0565,6.63451155235565e-06,3.79444522747468e-05
0.057,6.66790984410076e-06,3.81330636624677e-05
0.0575,6.70091325223181e-06,3.83189614025565e-05
0.058,6.73352111108259e-06,3.85021475570277e-05
0.0585,6.76573282387066e-06,3.86826246590902e-05
0.059,6.79754786239477e-06,3.88603957097153e-05
0.0595,6.8289657667178e-06,3.90354641740929e-05
0.06,6.85998614483544e-06,3.92078339779778e-05
0.0605,6.89060867233108e-06,3.9377509503927e-05
0.061,6.92083309201731e-06,3.95444955874292e-05
0.0615,6.95065921356433e-06,3.97087975129293e-05
0.062,6.9800869131157e-06,3.98704210097469e-05
0.0625,7.00911613289172e-06,4.00293722478943e-05
0.063,7.03774688078087e-06,4.01856578337919e-05
0.0635,7.06597922991962e-06,4.03392848058852e-05
0.064,7.09381331826094e-06,4.04902606301651e-05
0.0645,7.12124934813196e-06,4.06385931955915e-05
0.065,7.14828758578106e-06,4.07842908094232e-05
0.0655,7.17492836091468e-06,4.0927362192456e-05
0.066,7.20117206622428e-06,4.10678164741682e-05
0.0665,7.22701915690359e-06,4.12056631877778e-05
0.067,7.2524701501565e-06,4.134091226521e-05
0.0675,7.27752562469578e-06,4.14735740319781e-05
0.068,7.30218622023289e-06,4.16036592019786e-05
0.0685,7.32645263695903e-06,4.17311788722018e-05
0.069,7.35032563501759e-06,4.1856144517359e-05
0.0695,7.37380603396824e-06,4.19785679844285e-05
0.07,7.3968947122427e-06,4.20984614871211e-05
0.0705,7.41959260659236e-06,4.22158376002669e-05
0.071,7.44190071152798e-06,4.2330709254125e-05
0.0715,7.46382007875141e-06,4.24430897286173e-05
0.072,7.48535181657975e-06,4.25529926474886e-05
0.0725,7.5064970893618e-06,4.2660431972394e-05
0.073,7.52725711688715e-06,4.27654219969156e-05
0.0735,7.54763317378799e-06,4.28679773405108e-05
0.074,7.56762658893375e-06,4.29681129423918e-05
0.0745,7.58723874481876e-06,4.30658440553403e-05
0.075,7.60647107694311e-06,4.31611862394577e-05
0.0755,7.62532507318676e-06,4.32541553558515e-05
0.076,7.64380227317721e-06,4.33447675602612e-05
0.0765,7.66190426765081e-06,4.34330392966226e-05
0.077,7.67963269780791e-06,4.35189872905744e-05
0.0775,7.69698925466195e-06,4.36026285429055e-05
0.078,7.71397567838276e-06,4.36839803229476e-05
0.0785,7.73059375763409e-06,4.37630601619126e-05
0.079,7.74684532890554e-06,4.3839885846177e-05
0.0795,7.76273227583892e-06,4.39144754105158e-05
0.08,7.77825652854924e-06,4.39868471312881e-05
0.0805,7.79342006294026e-06,4.40570195195755e-05
0.081,7.80822490001482e-06,4.41250113142774e-05
0.0815,7.82267310517991e-06,4.41908414751644e-05
0.082,7.83676678754676e-06,4.42545291758942e-05
0.0825,7.85050809922595e-06,4.43160937969911e-05
0.083,7.86389923461792e-06,4.43755549187936e-05
0.0835,7.87694242969893e-06,4.44329323143724e-05
0.084,7.88963996130291e-06,4.44882459424219e-05
0.0845,7.9019941463993e-06,4.45415159401283e-05
0.085,7.91400734136736e-06,4.45927626160174e-05
0.0855,7.92568194126693e-06,4.4642006442784e-05
0.086,7.93702037910632e-06,4.46892680501071e-05
0.0865,7.9480251251071e-06,4.47345682174534e-05
0.087,7.95869868596655e-06,4.4777927866871e-05
0.0875,7.96904360411764e-06,4.48193680557789e-05
0.088,7.97906245698713e-06,4.48589099697538e-05
0.0885,7.98875785625192e-06,4.48965749153192e-05
0.089,7.99813244709406e-06,4.49323843127405e-05
0.0895,8.00718890745455e-06,4.49663596888304e-05
0.09,8.01592994728632e-06,4.49985226697686e-05
0.0905,8.0243583078065e-06,4.50288949739411e-05
0.091,8.03247676074829e-06,4.50574984048027e-05
0.0915,8.04028810761245e-06,4.5084354843768e-05
0.092,8.04779517891866e-06,4.51094862431351e-05
0.0925,8.05500083345684e-06,4.51329146190452e-05
0.093,8.06190795753862e-06,4.51546620444846e-05
0.0935,8.06851946424899e-06,4.51747506423313e-05
0.094,8.07483829269834e-06,4.51932025784509e-05
0.0945,8.08086740727503e-06,4.52100400548458e-05
0.095,8.0866097968986e-06,4.52252853028614e-05
0.0955,8.09206847427387e-06,4.52389605764528e-05
0.096,8.09724647514601e-06,4.52510881455166e-05
0.0965,8.10214685755678e-06,4.52616902892898e-05
0.097,8.10677270110207e-06,4.52707892898213e-05
0.0975,8.11112710619098e-06,4.52784074255167e-05
0.098,8.11521319330634e-06,4.52845669647622e-05
0.0985,8.11903410226714e-06,4.52892901596285e-05
0.099,8.1225929914925e-06,4.5292599239659e-05
0.0995,8.12589303726775e-06,4.52945164057436e-05
0.1,8.12893743301229e-06,4.52950638240825e-05
0.1005,8.13172938854951e-06,4.52942636202403e-05
0.101,8.1342721293787e-06,4.52921378732941e-05
0.1015,8.13656889594906e-06,4.52887086100774e-05
0.102,8.13862294293572e-06,4.52839977995211e-05
0.1025,8.14043753851783e-06,4.5278027347095e-05
0.103,8.14201596365865e-06,4.52708190893493e-05
0.1035,8.14336151138763e-06,4.52623947885599e-05
0.104,8.14447748608442e-06,4.52527761274779e-05
0.1045,8.14536720276482e-06,4.52419847041846e-05
0.105,8.1460339863686e-06,4.52300420270532e-05
0.1055,8.1464811710493e-06,4.52169695098195e-05
0.106,8.14671209946588e-06,4.52027884667613e-05
0.1065,8.14673012207646e-06,4.51875201079872e-05
0.107,8.146538596434e-06,4.51711855348378e-05
0.1075,8.14614088648425e-06,4.51538057353969e-05
0.108,8.14554036186594e-06,4.51354015801163e-05
0.1085,8.14474039721347e-06,4.5115993817552e-05
0.109,8.14374437146233e-06,4.50956030702145e-05
0.1095,8.14255566715756e-06,4.50742498305321e-05
0.11,8.14117766976548e-06,4.50519544569279e-05
0.1105,8.13961376698913e-06,4.50287371700115e-05
0.111,8.13786734808761e-06,4.50046180488838e-05
0.1115,8.13594180319977e-06,4.49796170275575e-05
0.112,8.13384052267255e-06,4.49537538914917e-05
0.1125,8.13156689639416e-06,4.49270482742424e-05
0.113,8.12912431313283e-06,4.48995196542275e-05
0.1135,8.1265161598811e-06,4.48711873516082e-05
0.114,8.12374582120645e-06,4.48420705252854e-05
0.1145,8.12081667860847e-06,4.48121881700123e-05
0.115,8.1177321098831e-06,4.47815591136216e-05
0.1155,8.11449548849436e-06,4.47502020143691e-05
0.116,8.11111018295398e-06,4.47181353583909e-05
0.1165,8.10757955620933e-06,4.46853774572764e-05
0.117,8.10390696504004e-06,4.46519464457551e-05
0.1175,8.10009575946367e-06,4.46178602794975e-05
0.118,8.09614928215084e-06,4.45831367330297e-05
0.1185,8.09207086785013e-06,4.45477933977621e-05
0.119,8.08786384282297e-06,4.45118476801303e-05
0.1195,8.08353152428902e-06,4.44753167998492e-05
0.12,8.07907721988208e-06,4.44382177882798e-05
0.1205,8.07450422711705e-06,4.44005674869072e-05
0.121,8.06981583286788e-06,4.43623825459301e-05
0.1215,8.06501531285697e-06,4.43236794229611e-05
0.122,8.0601059311561e-06,4.42844743818372e-05
0.1225,8.05509093969904e-06,4.42447834915381e-05
0.123,8.04997357780604e-06,4.42046226252142e-05
0.1235,8.04475707172029e-06,4.41640074593192e-05
0.124,8.03944463415643e-06,4.412295347285e-05
0.1245,8.03403946386118e-06,4.40814759466896e-05
0.125,8.0285447451862e-06,4.40395899630522e-05
0.1255,8.02296364767309e-06,4.39973104050293e-05
0.126,8.01729932565066e-06,4.39546519562343e-05
0.1265,8.01155491784442e-06,4.39116291005436e-05
0.127,8.00573354699822e-06,4.38682561219323e-05
0.1275,7.99983831950816e-06,4.38245471044018e-05
0.128,7.99387232506861e-06,4.37805159319976e-05
0.1285,7.98783863633036e-06,4.37361762889136e-05
0.129,7.98174030857075e-06,4.36915416596816e-05
0.1295,7.97558037937569e-06,4.36466253294424e-05
0.13,7.96936186833346e-06,4.36014403842959e-05
0.1305,7.96308777674006e-06,4.35559997117271e-05
0.131,7.95676108731598e-06,4.35103160011054e-05
0.1315,7.95038476393415e-06,4.34644017442532e-05
0.132,7.94396175135887e-06,4.34182692360812e-05
0.1325,7.93749497499548e-06,4.33719305752864e-05
0.133,7.9309873406505e-06,4.33253976651097e-05
0.1335,7.92444173430202e-06,4.32786822141502e-05
0.134,7.91786102188003e-06,4.32317957372312e-05
0.1345,7.91124804905629e-06,4.31847495563177e-05
0.135,7.90460564104357e-06,4.31375548014785e-05
0.1355,7.89793660240375e-06,4.30902224118937e-05
0.136,7.89124371686453e-06,4.30427631369021e-05
0.1365,7.88452974714433e-06,4.29951875370863e-05
0.137,7.8777974347851e-06,4.29475059853938e-05
0.1375,7.87104949999265e-06,4.28997286682889e-05
0.138,7.86428864148424e-06,4.28518655869353e-05
0.1385,7.85751753634298e-06,4.28039265584031e-05
0.139,7.85073883987878e-06,4.27559212169001e-05
0.1395,7.84395518549544e-06,4.27078590150227e-05
0.14,7.83716918456353e-06,4.26597492250241e-05
0.1405,7.83038342629859e-06,4.26116009400971e-05
0.141,7.82360047764437e-06,4.25634230756697e-05
0.1415,7.81682288316065e-06,4.25152243707097e-05
0.142,7.81005316491523e-06,4.24670133890384e-05
0.1425,7.80329382237987e-06,4.24187985206498e-05
0.143,7.79654733232968e-06,4.23705879830356e-05
0.1435,7.78981614874584e-06,4.2322389822514e-05
0.144,7.78310270272123e-06,4.22742119155617e-05
0.1445,7.77640940236883e-06,4.22260619701489e-05
0.145,7.76973863273264e-06,4.21779475270755e-05
0.1455,7.76309275570094e-06,4.21298759613108e-05
0.146,7.75647410992172e-06,4.20818544833326e-05
0.1465,7.74988501072008e-06,4.20338901404689e-05
0.147,7.74332775001741e-06,4.19859898182393e-05
0.1475,7.73680459625229e-06,4.19381602416967e-05
0.148,7.73031779430275e-06,4.18904079767684e-05
0.1485,7.72386956540982e-06,4.18427394315957e-05
0.149,7.71746210710222e-06,4.17951608578719e-05
0.1495,7.71109759312176e-06,4.17476783521781e-05
0.15,7.70477817334951e-06,4.1700297857317e-05
0.1505,7.69850597373228e-06,4.16530251636437e-05
0.151,7.69228309620946e-06,4.16058659103945e-05
0.1515,7.68611161863976e-06,4.1558825587014e-05
0.152,7.67999359472791e-06,4.15119095344807e-05
0.1525,7.67393105395093e-06,4.14651229466318e-05
0.153,7.66792600148395e-06,4.14184708714884e-05
0.1535,7.6619804181252e-06,4.13719582125815e-05
0.154,7.65609626022018e-06,4.13255897302809e-05
0.1545,7.65027545958473e-06,4.12793700431261e-05
0.155,7.64451992342681e-06,4.12333036291625e-05
0.1555,7.638831534267e-06,4.11873948272826e-05
0.156,7.63321214985738e-06,4.11416478385734e-05
0.1565,7.62766360309887e-06,4.10960667276711e-05
0.157,7.62218770195691e-06,4.10506554241239e-05
0.1575,7.61678622937533e-06,4.10054177237638e-05
0.158,7.61146094318844e-06,4.09603572900881e-05
0.1585,7.60621357603136e-06,4.09154776556503e-05
0.159,7.60104583524844e-06,4.08707822234622e-05
0.1595,7.5959594027998e-06,4.08262742684071e-05
0.16,7.59095593516597e-06,4.0781956938664e-05
0.1605,7.58603706325063e-06,4.07378332571431e-05
0.161,7.58120439228128e-06,4.06939061229346e-05
0.1615,7.57645950170785e-06,4.06501783127686e-05
0.162,7.57180394509917e-06,4.0606652482488e-05
0.1625,7.56723925003729e-06,4.0563331168534e-05
0.163,7.56276691800939e-06,4.05202167894438e-05
0.1635,7.55838842429747e-06,4.04773116473612e-05
0.164,7.55410521786562e-06,4.0434617929559e-05
0.1645,7.5499187212448e-06,4.03921377099732e-05
0.165,7.54583033041522e-06,4.03498729507487e-05
0.1655,7.54184141468612e-06,4.03078255037962e-05
0.166,7.53795331657304e-06,4.02659971123585e-05
0.1665,7.53416735167234e-06,4.02243894125874e-05
0.167,7.53048480853287e-06,4.01830039351295e-05
0.1675,7.52690694852485e-06,4.014184210672e-05
0.168,7.52343500570545e-06,4.01009052517838e-05
0.1685,7.52007018668119e-06,4.00601945940439e-05
0.169,7.5168136704668e-06,4.00197112581336e-05
0.1695,7.51366660834033e-06,3.99794562712147e-05
0.17,7.51063012369428e-06,3.99394305645971e-05
0.1705,7.50770531188254e-06,3.98996349753609e-05
0.171,7.50489324006281e-06,3.98600702479782e-05
0.1715,7.50219494703434e-06,3.98207370359332e-05
0.172,7.49961144307066e-06,3.97816359033396e-05
0.1725,7.49714370974707e-06,3.97427673265527e-05
0.173,7.49479269976264e-06,3.97041316957754e-05
0.1735,7.49255933675652e-06,3.96657293166563e-05
0.174,7.49044451511835e-06,3.96275604118779e-05
0.1745,7.48844909979271e-06,3.95896251227345e-05
0.175,7.4865739260776e-06,3.95519235106976e-05
0.1755,7.48481979941691e-06,3.95144555589688e-05
0.176,7.48318749518704e-06,3.9477221174018e-05
0.1765,7.48167775847776e-06,3.94402201871073e-05
0.177,7.48029130386741e-06,3.94034523557987e-05
0.1775,7.47902881519276e-06,3.93669173654463e-05
0.178,7.47789094531361e-06,3.93306148306711e-05
0.1785,7.47687831587271e-06,3.9294544296819e-05
0.179,7.47599151705112e-06,3.9258705241401e-05
0.1795,7.47523110731973e-06,3.92230970755153e-05
0.18,7.4745976131873e-06,3.91877191452509e-05
0.1805,7.47409152894549e-06,3.91525707330723e-05
0.181,7.4737133164116e-06,3.91176510591839e-05
0.1815,7.47346340466923e-06,3.90829592828751e-05
0.182,7.47334218980765e-06,3.90484945038434e-05
0.1825,7.47335003466018e-06,3.90142557634964e-05
0.183,7.47348726854209e-06,3.89802420462326e-05
0.1835,7.47375418698867e-06,3.89464522806992e-05
0.184,7.47415105149373e-06,3.89128853410275e-05
0.1845,7.47467808924936e-06,3.88795400480475e-05
0.185,7.4753354928872e-06,3.88464151704783e-05
0.1855,7.47612342022191e-06,3.88135094260987e-05
0.186,7.47704199399739e-06,3.87808214828949e-05
0.1865,7.47809130163614e-06,3.87483499601879e-05
0.187,7.47927139499231e-06,3.87160934297403e-05
0.1875,7.48058229010911e-06,3.86840504168431e-05
0.188,7.48202396698092e-06,3.86522194013836e-05
0.1885,7.48359636932077e-06,3.86205988188942e-05
0.189,7.48529940433373e-06,3.85891870615842e-05
0.1895,7.4871329424968e-06,3.85579824793527e-05
0.19,7.4890968173458e-06,3.85269833807865e-05
0.1905,7.49119082526986e-06,3.84961880341396e-05
0.191,7.49341472531399e-06,3.84655946682985e-05
0.1915,7.49576823899028e-06,3.84352014737297e-05
0.192,7.49825105009826e-06,3.84050066034128e-05
0.1925,7.50086280455475e-06,3.8375008173758e-05
0.193,7.50360311023395e-06,3.83452042655078e-05
0.1935,7.50647153681793e-06,3.83155929246243e-05
0.194,7.50946761565825e-06,3.82861721631625e-05
0.1945,7.51259083964893e-06,3.82569399601288e-05
0.195,7.51584066311149e-06,3.82278942623268e-05
0.1955,7.51921650169229e-06,3.81990329851907e-05
0.196,7.52271773227266e-06,3.81703540136063e-05
0.1965,7.52634369289243e-06,3.81418552027212e-05
0.197,7.53009368268696e-06,3.81135343787448e-05
0.1975,7.53396696183831e-06,3.80853893397379e-05
0.198,7.53796275154081e-06,3.80574178563932e-05
0.1985,7.5420802339813e-06,3.8029617672807e-05
0.199,7.54631855233454e-06,3.80019865072422e-05
0.1995,7.55067681077383e-06,3.79745220528826e-05
0.2,7.55515407449738e-06,3.79472219785796e-05
0.2005,7.5597493697704e-06,3.79200839295907e-05
0.201,7.56446168398334e-06,3.78931055283112e-05
0.2015,7.56928996572633e-06,3.78662843749973e-05
0.202,7.57423312488007e-06,3.78396180484839e-05
0.2025,7.57929003272324e-06,3.7813104106894e-05
0.203,7.58445952205659e-06,3.77867400883436e-05
0.2035,7.58974038734376e-06,3.77605235116389e-05
0.204,7.59513138486894e-06,3.77344518769689e-05
0.2045,7.60063123291129e-06,3.77085226665931e-05
0.205,7.60623861193631e-06,3.7682733345523e-05
0.2055,7.61195216480394e-06,3.76570813622005e-05
0.206,7.61777049699357e-06,3.76315641491704e-05
0.2065,7.62369217684566e-06,3.76061791237505e-05
0.207,7.62971573582019e-06,3.75809236886955e-05
0.2075,7.63583966877146e-06,3.75557952328583e-05
0.208,7.64206243423952e-06,3.75307911318467e-05
0.2085,7.64838245475781e-06,3.75059087486752e-05
0.209,7.65479811717702e-06,3.74811454344134e-05
0.2095,7.66130777300495e-06,3.74564985288305e-05
0.21,7.66790973876226e-06,3.74319653610353e-05
0.2105,7.67460229635381e-06,3.74075432501133e-05
0.211,7.68138369345552e-06,3.73832295057607e-05
0.2115,7.68825214391642e-06,3.73590214289164e-05
0.212,7.69520582817581e-06,3.73349163123919e-05
0.2125,7.70224289369511e-06,3.73109114415005e-05
0.213,7.70936145540441e-06,3.72870040946868e-05
0.2135,7.71655959616326e-06,3.72631915441567e-05
0.214,7.72383536723549e-06,3.72394710565088e-05
0.2145,7.73118678877783e-06,3.72158398933682e-05
0.215,7.73861185034182e-06,3.71922953120232e-05
0.2155,7.74610851138893e-06,3.71688345660649e-05
0.216,7.75367470181826e-06,3.71454549060306e-05
0.2165,7.76130832250657e-06,3.71221535800512e-05
0.217,7.76900724586019e-06,3.70989278345031e-05
0.2175,7.77676931637841e-06,3.70757749146634e-05
0.218,7.78459235122774e-06,3.7052692065371e-05
0.2185,7.79247414082681e-06,3.70296765316918e-05
0.219,7.80041244944122e-06,3.70067255595885e-05
0.2195,7.80840501578796e-06,3.69838363965961e-05
0.22,7.81644955364899e-06,3.69610062925021e-05
0.2205,7.82454375249344e-06,3.69382325000325e-05
0.221,7.83268527810788e-06,3.69155122755434e-05
0.2215,7.84087177323442e-06,3.6892842879718e-05
0.222,7.84910085821591e-06,3.68702215782704e-05
0.2225,7.85737013164786e-06,3.68476456426557e-05
0.223,7.86567717103657e-06,3.6825112350786e-05
0.2235,7.87401953346291e-06,3.68026189877546e-05
0.224,7.88239475625125e-06,3.67801628465663e-05
0.2245,7.89080035764286e-06,3.6757741228876e-05
0.225,7.89923383747349e-06,3.67353514457354e-05
0.2255,7.90769267785436e-06,3.67129908183474e-05
0.226,7.91617434385614e-06,3.66906566788298e-05
0.2265,7.92467628419537e-06,3.66683463709874e-05
0.227,7.93319593192293e-06,3.66460572510936e-05
0.2275,7.94173070511393e-06,3.66237866886808e-05
0.228,7.95027800755885e-06,3.66015320673402e-05
0.2285,7.95883522945539e-06,3.657929078553e-05
0.229,7.96739974810095e-06,3.65570602573933e-05
0.2295,7.97596892858532e-06,3.65348379135835e-05
0.23,7.98454012448347e-06,3.65126212020982e-05
0.2305,7.99311067854825e-06,3.64904075891208e-05
0.231,8.00167792340269e-06,3.64681945598686e-05
0.2315,8.0102391822318e-06,3.64459796194479e-05
0.232,8.01879176947364e-06,3.64237602937139e-05
0.2325,8.02733299150941e-06,3.64015341301369e-05
0.233,8.03586014735256e-06,3.63792986986719e-05
0.2335,8.04437052933669e-06,3.63570515926334e-05
0.234,8.05286142380223e-06,3.63347904295727e-05
0.2345,8.06133011178185e-06,3.63125128521587e-05
0.235,8.0697738696847e-06,3.62902165290619e-05
0.2355,8.07818996997944e-06,3.62678991558402e-05
0.236,8.0865756818763e-06,3.62455584558274e-05
0.2365,8.094928272008e-06,3.62231921810241e-05
0.237,8.10324500511e-06,3.62007981129904e-05
0.2375,8.11152314469995e-06,3.61783740637414e-05
0.238,8.11975995375666e-06,3.61559178766444e-05
0.2385,8.12795269539883e-06,3.61334274273185e-05
0.239,8.13609863356352e-06,3.61109006245366e-05
0.2395,8.1441950336848e-06,3.60883354111285e-05
0.24,8.15223916337261e-06,3.60657297648871e-05
0.2405,8.16022829309204e-06,3.60430816994748e-05
0.241,8.16815969684319e-06,3.60203892653317e-05
0.2415,8.17603065284166e-06,3.59976505505843e-05
0.242,8.18383844419991e-06,3.59748636819554e-05
0.2425,8.19158035960954e-06,3.59520268256738e-05
0.243,8.19925369402449e-06,3.59291381883838e-05
0.2435,8.20685574934542e-06,3.59061960180552e-05
0.244,8.21438383510508e-06,3.58831986048915e-05
0.2445,8.22183526915493e-06,3.58601442822378e-05
0.245,8.22920737835284e-06,3.58370314274866e-05
0.2455,8.23649749925195e-06,3.58138584629807e-05
0.246,8.2437029787906e-06,3.57906238569135e-05
0.2465,8.25082117498338e-06,3.57673261242253e-05
0.247,8.25784945761325e-06,3.57439638274938e-05
0.2475,8.26478520892463e-06,3.57205355778207e-05
0.248,8.27162582431739e-06,3.56970400357099e-05
0.2485,8.27836871304173e-06,3.56734759119397e-05
0.249,8.28501129889376e-06,3.5649841968426e-05
0.2495,8.29155102091166e-06,3.56261370190762e-05
0.25,8.29798533407218e-06,3.56023599306329e-05
0.2505,8.30431170998744e-06,3.55785096235062e-05
0.251,8.31052763760159e-06,3.55545850725928e-05
0.2515,8.31663062388721e-06,3.55305853080815e-05
0.252,8.32261819454126e-06,3.55065094162435e-05
0.2525,8.32848789468011e-06,3.54823565402061e-05
0.253,8.33423728953349e-06,3.54581258807087e-05
0.2535,8.33986396513708e-06,3.54338166968405e-05
0.254,8.34536552902337e-06,3.54094283067581e-05
0.2545,8.35073961091049e-06,3.53849600883818e-05
0.255,8.35598386338872e-06,3.53604114800709e-05
0.2555,8.36109596260431e-06,3.53357819812754e-05
0.256,8.36607360894023e-06,3.53110711531644e-05
0.2565,8.37091452769349e-06,3.52862786192285e-05
0.257,8.37561646974858e-06,3.52614040658582e-05
0.2575,8.38017721224682e-06,3.52364472428941e-05
0.258,8.38459455925099e-06,3.52114079641508e-05
0.2585,8.38886634240508e-06,3.51862861079124e-05
0.259,8.39299042158874e-06,3.51610816173995e-05
0.2595,8.39696468556613e-06,3.5135794501207e-05
0.26,8.40078705262882e-06,3.5110424833713e-05
0.2605,8.40445547123239e-06,3.50849727554562e-05
0.261,8.40796792062644e-06,3.50594384734833e-05
0.2615,8.41132241147756e-06,3.50338222616651e-05
0.262,8.41451698648496e-06,3.50081244609791e-05
0.2625,8.41754972098813e-06,3.49823454797594e-05
0.263,8.42041872356643e-06,3.49564857939126e-05
0.2635,8.42312213662982e-06,3.49305459470978e-05
0.264,8.42565813700071e-06,3.49045265508708e-05
0.2645,8.42802493648621e-06,3.48784282847914e-05
0.265,8.43022078244072e-06,3.48522518964925e-05
0.2655,8.43224395831824e-06,3.4825998201711e-05
0.266,8.43409278421439e-06,3.47996680842789e-05
0.2665,8.43576561739766e-06,3.47732624960754e-05
0.267,8.43726085282968e-06,3.47467824569379e-05
0.2675,8.43857692367424e-06,3.47202290545337e-05
0.268,8.43971230179483e-06,3.46936034441904e-05
0.2685,8.44066549824047e-06,3.46669068486871e-05
0.269,8.44143506371973e-06,3.46401405580049e-05
0.2695,8.44201958906293e-06,3.46133059290387e-05
0.27,8.44241770567241e-06,3.45864043852698e-05
0.2705,8.44262808596117e-06,3.45594374164007e-05
0.271,8.4426494437798e-06,3.45324065779527e-05
0.2715,8.44248053483189e-06,3.45053134908265e-05
0.272,8.44212015707806e-06,3.44781598408275e-05
0.2725,8.44156715112877e-06,3.44509473781553e-05
0.273,8.44082040062584e-06,3.44236779168583e-05
0.2735,8.43987883261289e-06,3.43963533342552e-05
0.274,8.43874141789466e-06,3.43689755703203e-05
0.2745,8.43740717138522e-06,3.43415466270373e-05
0.275,8.43587515244505e-06,3.43140685677176e-05
0.2755,8.43414446520705e-06,3.42865435162872e-05
0.276,8.43221425889125e-06,3.42589736565384e-05
0.2765,8.43008372810842e-06,3.42313612313506e-05
0.277,8.42775211315238e-06,3.42037085418759e-05
0.2775,8.42521870028101e-06,3.41760179466938e-05
0.278,8.42248282198593e-06,3.4148291860932e-05
0.2785,8.41954385725078e-06,3.41205327553543e-05
0.279,8.41640123179792e-06,3.40927431554169e-05
0.2795,8.41305441832373e-06,3.40649256402919e-05
0.28,8.40950293672219e-06,3.40370828418591e-05
0.2805,8.40574635429693e-06,3.40092174436677e-05
0.281,8.40178428596167e-06,3.39813321798661e-05
0.2815,8.39761639442908e-06,3.39534298341038e-05
0.282,8.39324239038807e-06,3.39255132384032e-05
0.2825,8.38866203266955e-06,3.38975852720042e-05
0.283,8.3838751284006e-06,3.38696488601821e-05
0.2835,8.37888153314709e-06,3.38417069730384e-05
0.284,8.37368115104459e-06,3.38137626242676e-05
0.2845,8.36827393491768e-06,3.37858188698986e-05
0.285,8.36265988638741e-06,3.37578788070134e-05
0.2855,8.35683905596703e-06,3.37299455724419e-05
0.286,8.35081154314577e-06,3.37020223414358e-05
0.2865,8.3445774964608e-06,3.36741123263196e-05
0.287,8.33813711355712e-06,3.36462187751216e-05
0.2875,8.33149064123543e-06,3.36183449701839e-05
0.288,8.32463837548793e-06,3.35904942267523e-05
0.2885,8.31758066152187e-06,3.35626698915459e-05
0.289,8.31031789377099e-06,3.35348753413074e-05
0.2895,8.30285051589456e-06,3.35071139813331e-05
0.29,8.29517902076422e-06,3.34793892439834e-05
0.2905,8.28730395043827e-06,3.34517045871728e-05
0.291,8.27922589612351e-06,3.34240634928399e-05
0.2915,8.27094549812441e-06,3.33964694653974e-05
0.292,8.26246344577946e-06,3.33689260301609e-05
0.2925,8.2537804773846e-06,3.33414367317571e-05
0.293,8.24489738010344e-06,3.33140051325116e-05
0.2935,8.23581498986418e-06,3.32866348108163e-05
0.294,8.22653419124289e-06,3.3259329359476e-05
0.2945,8.21705591733296e-06,3.32320923840355e-05
0.295,8.20738114960042e-06,3.32049275010875e-05
0.2955,8.19751091772486e-06,3.31778383365612e-05
0.296,8.18744629942566e-06,3.31508285239934e-05
0.2965,8.17718842027314e-06,3.31239017027825e-05
0.297,8.16673845348439e-06,3.30970615164266e-05
0.2975,8.15609761970344e-06,3.30703116107466e-05
0.298,8.14526718676539e-06,3.30436556320957e-05
0.2985,8.13424846944424e-06,3.3017097225557e-05
0.299,8.12304282918403e-06,3.29906400331291e-05
0.2995,8.11165167381298e-06,3.2964287691903e-05
0.3,8.1000764572403e-06,3.29380438322299e-05
0.3005,8.08831867913539e-06,3.29119120758814e-05
0.301,8.07637988458904e-06,3.28858960342043e-05
0.3015,8.06426166375667e-06,3.28599993062701e-05
0.302,8.05196565148325e-06,3.28342254770209e-05
0.3025,8.0394935269101e-06,3.28085781154141e-05
0.303,8.02684701306354e-06,3.27830607725664e-05
0.3035,8.01402787642554e-06,3.27576769798995e-05
0.304,8.0010379264865e-06,3.27324302472896e-05
0.3045,7.98787901528044e-06,3.27073240612226e-05
0.305,7.97455303690267e-06,3.26823618829562e-05
0.3055,7.96106192701038e-06,3.26575471466926e-05
0.306,7.94740766230638e-06,3.26328832577625e-05
0.3065,7.93359226000647e-06,3.26083735908226e-05
0.307,7.91961777729104e-06,3.25840214880694e-05
0.3075,7.90548631074126e-06,3.25598302574693e-05
0.308,7.89119999576088e-06,3.25358031710088e-05
0.3085,7.87676100598387e-06,3.25119434629648e-05
0.309,7.86217155266908e-06,3.24882543281969e-05
0.3095,7.84743388408223e-06,3.24647389204637e-05
0.31,7.83255028486627e-06,3.24414003507638e-05
0.3105,7.81752307540062e-06,3.24182416857025e-05
0.311,7.80235461115008e-06,3.23952659458865e-05
0.3115,7.78704728200407e-06,3.23724761043463e-05
0.312,7.77160351160685e-06,3.23498750849881e-05
0.3125,7.75602575667935e-06,3.23274657610762e-05
0.313,7.74031650633331e-06,3.23052509537459e-05
0.3135,7.7244782813783e-06,3.228323343055e-05
0.314,7.7085136336222e-06,3.22614159040372e-05
0.3145,7.69242514516591e-06,3.22398010303653e-05
0.315,7.67621542769263e-06,3.22183914079499e-05
0.3155,7.6598871217525e-06,3.21971895761489e-05
0.316,7.64344289604306e-06,3.21761980139843e-05
0.3165,7.62688544668604e-06,3.21554191389022e-05
0.317,7.61021749650098e-06,3.21348553055716e-05
0.3175,7.5934417942762e-06,3.21145088047232e-05
0.318,7.57656111403761e-06,3.20943818620282e-05
0.3185,7.55957825431561e-06,3.20744766370188e-05
0.319,7.54249603741069e-06,3.20547952220492e-05
0.3195,7.52531730865802e-06,3.20353396412997e-05
0.32,7.5080449356914e-06,3.20161118498225e-05
0.3205,7.49068180770692e-06,3.19971137326304e-05
0.321,7.47323083472678e-06,3.19783471038292e-05
0.3215,7.45569494686335e-06,3.1959813705793e-05
0.322,7.4380770935841e-06,3.19415152083843e-05
0.3225,7.42038024297749e-06,3.19234532082183e-05
0.323,7.40260738102019e-06,3.1905629227972e-05
0.3235,7.38476151084589e-06,3.18880447157393e-05
0.324,7.366845652016e-06,3.18707010444316e-05
0.3245,7.34886283979249e-06,3.18535995112254e-05
0.325,7.33081612441309e-06,3.18367413370567e-05
0.3255,7.31270857036918e-06,3.18201276661639e-05
0.326,7.29454325568646e-06,3.18037595656788e-05
0.3265,7.27632327120867e-06,3.17876380252672e-05
0.327,7.25805171988448e-06,3.17717639568197e-05
0.3275,7.23973171605778e-06,3.17561381941926e-05
0.328,7.22136638476132e-06,3.17407614930008e-05
0.3285,7.20295886101402e-06,3.17256345304623e-05
0.329,7.18451228912183e-06,3.17107579052952e-05
0.3295,7.16602982198226e-06,3.16961321376677e-05
0.33,7.1475146203927e-06,3.16817576692013e-05
0.3305,7.12896985236242e-06,3.16676348630273e-05
0.331,7.11039869242823e-06,3.16537640038973e-05
0.3315,7.0918043209739e-06,3.16401452983469e-05
0.332,7.07318992355312e-06,3.16267788749136e-05
0.3325,7.05455869021622e-06,3.16136647844076e-05
0.333,7.03591381484033e-06,3.16008030002364e-05
0.3335,7.01725849446317e-06,3.15881934187824e-05
0.334,6.99859592862042e-06,3.15758358598339e-05
0.3345,6.97992931868658e-06,3.15637300670679e-05
0.335,6.96126186721951e-06,3.15518757085856e-05
0.3355,6.94259677730848e-06,3.15402723774995e-05
0.336,6.92393725192595e-06,3.15289195925718e-05
0.3365,6.90528649328296e-06,3.15178167989021e-05
0.337,6.88664770218823e-06,3.15069633686667e-05
0.3375,6.86802407741102e-06,3.14963586019051e-05
0.338,6.84941881504759e-06,3.14860017273552e-05
0.3385,6.83083510789149e-06,3.14758919033361e-05
0.339,6.81227614480742e-06,3.14660282186767e-05
0.3395,6.79374511010882e-06,3.14564096936894e-05
0.34,6.77524518293909e-06,3.14470352811884e-05
0.3405,6.75677953665629e-06,3.14379038675518e-05
0.341,6.73835133822144e-06,3.14290142738246e-05
0.3415,6.71996374759028e-06,3.14203652568643e-05
0.342,6.70161991710831e-06,3.14119555105257e-05
0.3425,6.68332299090914e-06,3.14037836668847e-05
0.343,6.66507610431609e-06,3.13958482975002e-05
0.3435,6.64688238324669e-06,3.13881479147127e-05
0.344,6.62874494362026e-06,3.13806809729778e-05
0.3445,6.61066689076828e-06,3.13734458702349e-05
0.345,6.59265131884742e-06,3.13664409493082e-05
0.3455,6.57470131025517e-06,3.13596644993404e-05
0.346,6.5568199350479e-06,3.13531147572569e-05
0.3465,6.53901025036114e-06,3.13467899092596e-05
0.347,6.52127529983192e-06,3.13406880923492e-05
0.3475,6.50361811302296e-06,3.13348073958745e-05
0.348,6.48604170484847e-06,3.13291458631075e-05
0.3485,6.46854907500136e-06,3.13237014928426e-05
0.349,6.45114320738166e-06,3.13184722410191e-05
0.3495,6.43382706952588e-06,3.13134560223642e-05
0.35,6.41660361203726e-06,3.13086507120563e-05
0.3505,6.3994757680166e-06,3.13040541474051e-05
0.351,6.38244645249376e-06,3.1299664129548e-05
0.3515,6.36551856185944e-06,3.1295478425161e-05
0.352,6.34869497329745e-06,3.12914947681805e-05
0.3525,6.33197854421723e-06,3.12877108615358e-05
0.353,6.31537211168643e-06,3.12841243788892e-05
0.3535,6.29887849186378e-06,3.12807329663824e-05
0.354,6.28250047943188e-06,3.12775342443859e-05
0.3545,6.26624084702996e-06,3.12745258092516e-05
0.355,6.25010234468668e-06,3.12717052350641e-05
0.3555,6.2340876992528e-06,3.1269070075391e-05
0.356,6.21819961383384e-06,3.12666178650297e-05
0.3565,6.20244076722277e-06,3.12643461217493e-05
0.357,6.18681381333271e-06,3.12622523480259e-05
0.3575,6.17132138062981e-06,3.12603340327705e-05
0.358,6.15596607156637e-06,3.12585886530477e-05
0.3585,6.14075046201429e-06,3.12570136757848e-05
0.359,6.12567710069904e-06,3.12556065594686e-05
0.3595,6.11074850863426e-06,3.12543647558305e-05
0.36,6.09596717855714e-06,3.12532857115169e-05
0.3605,6.08133557436476e-06,3.12523668697453e-05
0.361,6.06685613055149e-06,3.12516056719424e-05
0.3615,6.0525312516476e-06,3.12509995593651e-05
0.362,6.03836331165916e-06,3.12505459747012e-05
0.3625,6.02435465350943e-06,3.1250242363649e-05
0.363,6.01050758848169e-06,3.12500861764741e-05
0.3635,5.99682439566388e-06,3.12500748695416e-05
0.364,5.98330732139495e-06,3.12502059068219e-05
0.3645,5.96995857871331e-06,3.12504767613696e-05
0.365,5.95678034680753e-06,3.12508849167718e-05
0.3655,5.94377477046952e-06,3.12514278685672e-05
0.366,5.93094395955052e-06,3.12521031256322e-05
0.3665,5.91828998842023e-06,3.12529082115348e-05
0.367,5.90581489542934e-06,3.12538406658548e-05
0.3675,5.89352068237601e-06,3.12548980454683e-05
0.368,5.88140931397647e-06,3.12560779257977e-05
0.3685,5.86948271734024e-06,3.12573779020257e-05
0.369,5.85774278145039e-06,3.12587955902716e-05
0.3695,5.84619135664911e-06,3.12603286287317e-05
0.37,5.83483025412901e-06,3.12619746787809e-05
0.3705,5.82366124543073e-06,3.12637314260366e-05
0.371,5.81268606194708e-06,3.1265596581384e-05
0.3715,5.80190639443426e-06,3.1267567881961e-05
0.372,5.79132389253055e-06,3.1269643092104e-05
0.3725,5.780940164283e-06,3.12718200042516e-05
0.373,5.77075677568227e-06,3.12740964398077e-05
0.3735,5.76077525020632e-06,3.12764702499604e-05
0.374,5.75099706837311e-06,3.12789393164584e-05
0.3745,5.74142366730275e-06,3.12815015523415e-05
0.375,5.73205644028944e-06,3.12841549026264e-05
0.3755,5.7228967363835e-06,3.12868973449446e-05
0.376,5.7139458599838e-06,3.1289726890134e-05
0.3765,5.70520507044095e-06,3.12926415827816e-05
0.377,5.69667558167138e-06,3.12956395017171e-05
0.3775,5.68835856178282e-06,3.12987187604583e-05
0.378,5.68025513271114e-06,3.13018775076054e-05
0.3785,5.67236636986912e-06,3.13051139271874e-05
0.379,5.66469330180711e-06,3.1308426238957e-05
0.3795,5.65723690988602e-06,3.13118126986374e-05
0.38,5.64999812796276e-06,3.1315271598119e-05
0.3805,5.64297784208829e-06,3.13188012656073e-05
0.381,5.63617689021862e-06,3.13224000657213e-05
0.3815,5.62959606193878e-06,3.13260663995444e-05
0.382,5.62323609819997e-06,3.1329798704626e-05
0.3825,5.61709769107004e-06,3.13335954549348e-05
0.383,5.61118148349751e-06,3.1337455160764e-05
0.3835,5.6054880690891e-06,3.13413763685885e-05
0.384,5.60001799190106e-06,3.13453576608731e-05
0.3845,5.59477174624435e-06,3.13493976558344e-05
0.385,5.5897497765037e-06,3.13534950071539e-05
0.3855,5.58495247697074e-06,3.13576484036453e-05
0.386,5.58038019169123e-06,3.13618565688753e-05
0.3865,5.57603321432642e-06,3.13661182607397e-05
0.387,5.57191178802859e-06,3.13704322709957e-05
0.3875,5.56801610533087e-06,3.13747974247514e-05
0.388,5.56434630805117e-06,3.13792125799142e-05
0.3885,5.56090248721039e-06,3.13836766266003e-05
0.389,5.55768468296482e-06,3.13881884865051e-05
0.3895,5.5546928845526e-06,3.13927471122384e-05
0.39,5.55192703025443e-06,3.13973514866246e-05
0.3905,5.54938700736814e-06,3.14020006219699e-05
0.391,5.54707265219746e-06,3.14066935592988e-05
0.3915,5.54498375005458e-06,3.1411429367561e-05
0.392,5.54312003527667e-06,3.14162071428098e-05
0.3925,5.54148119125628e-06,3.14210260073541e-05
0.393,5.54006685048536e-06,3.14258851088859e-05
0.3935,5.53887659461304e-06,3.1430783619583e-05
0.394,5.53790995451693e-06,3.14357207351905e-05
0.3945,5.53716641038783e-06,3.1440695674081e-05
0.395,5.53664539182777e-06,3.14457076762956e-05
0.3955,5.53634627796126e-06,3.14507560025674e-05
0.396,5.53626839755948e-06,3.14558399333293e-05
0.3965,5.53641102917739e-06,3.14609587677072e-05
0.397,5.53677340130352e-06,3.14661118225013e-05
0.3975,5.53735469252223e-06,3.1471298431156e-05
0.398,5.53815403168838e-06,3.14765179427221e-05
0.3985,5.53917049811407e-06,3.1481769720812e-05
0.399,5.54040312176761e-06,3.14870531425493e-05
0.3995,5.54185088348431e-06,3.14923675975169e-05
0.4,5.54351271518925e-06,3.14977124867029e-05
0.4005,5.54538750013175e-06,3.15030872214482e-05
0.401,5.54747407313173e-06,3.15084912223961e-05
0.4015,5.54977122083766e-06,3.15139239184472e-05
0.402,5.55227768199622e-06,3.15193847457196e-05
0.4025,5.55499214773369e-06,3.1524873146518e-05
0.403,5.55791326184882e-06,3.15303885683108e-05
0.4035,5.56103962111736e-06,3.15359304627195e-05
0.404,5.56436977560811e-06,3.15414982845195e-05
0.4045,5.56790222901041e-06,3.15470914906551e-05
0.405,5.57163543897305e-06,3.15527095392683e-05
0.4055,5.57556781745462e-06,3.15583518887454e-05
0.406,5.57969773108524e-06,3.15640179967793e-05
0.4065,5.58402350153955e-06,3.15697073194506e-05
0.407,5.58854340592113e-06,3.15754193103289e-05
0.4075,5.59325567715818e-06,3.15811534195935e-05
0.408,5.59815850441053e-06,3.1586909093176e-05
0.4085,5.60325003348787e-06,3.1592685771926e-05
0.409,5.6085283672792e-06,3.15984828907996e-05
0.4095,5.61399156619349e-06,3.16042998780724e-05
0.41,5.61963764861126e-06,3.16101361545777e-05
0.4105,5.62546459134731e-06,3.16159911329712e-05
0.411,5.63147033012427e-06,3.16218642170214e-05
0.4115,5.63765276005683e-06,3.16277548009281e-05
0.412,5.64400973614685e-06,3.16336622686676e-05
0.4125,5.65053907378886e-06,3.16395859933669e-05
0.413,5.65723854928618e-06,3.16455253367055e-05
0.4135,5.66410590037728e-06,3.1651479648346e-05
0.414,5.67113882677253e-06,3.16574482653941e-05
0.4145,5.67833499070092e-06,3.16634305118864e-05
0.415,5.68569201746694e-06,3.16694256983081e-05
0.4155,5.69320749601712e-06,3.16754331211395e-05
0.416,5.7008789795164e-06,3.16814520624305e-05
0.4165,5.70870398593389e-06,3.16874817894044e-05
0.417,5.71667999863797e-06,3.16935215540893e-05
0.4175,5.72480446700047e-06,3.16995705929774e-05
0.418,5.73307480700969e-06,3.17056281267111e-05
0.4185,5.74148840189214e-06,3.17116933597959e-05
0.419,5.75004260274257e-06,3.17177654803377e-05
0.4195,5.7587347291623e-06,3.17238436598062e-05
0.42,5.76756206990537e-06,3.17299270528209e-05
0.4205,5.77652188353247e-06,3.173601479696e-05
0.421,5.78561139907231e-06,3.17421060125905e-05
0.4215,5.79482781669012e-06,3.17481998027191e-05
0.422,5.80416830836326e-06,3.17542952528613e-05
0.4225,5.81363001856356e-06,3.17603914309293e-05
0.423,5.8232100649463e-06,3.1766487387136e-05
0.4235,5.83290553904573e-06,3.17725821539144e-05
0.424,5.84271350697697e-06,3.17786747458515e-05
0.4245,5.85263101014438e-06,3.17847641596341e-05
0.425,5.86265506595613e-06,3.17908493740075e-05
0.4255,5.87278266854498e-06,3.17969293497425e-05
0.426,5.88301078949517e-06,3.18030030296122e-05
0.4265,5.89333637857533e-06,3.18090693383751e-05
0.427,5.90375636447711e-06,3.18151271827643e-05
0.4275,5.91426765555963e-06,3.18211754514805e-05
0.428,5.92486714059936e-06,3.18272130151883e-05
0.4285,5.93555168954543e-06,3.18332387265132e-05
0.429,5.94631815428003e-06,3.18392514200398e-05
0.4295,5.95716336938389e-06,3.18452499123092e-05
0.43,5.96808415290654e-06,3.18512330018133e-05
0.4305,5.97907730714122e-06,3.18571994689878e-05
0.431,5.99013961940425e-06,3.18631480761997e-05
0.4315,6.00126786281883e-06,3.18690775677308e-05
0.432,6.01245879710285e-06,3.18749866697546e-05
0.4325,6.0237091693607e-06,3.18808740903057e-05
0.433,6.03501571487894e-06,3.18867385192419e-05
0.4335,6.04637515792543e-06,3.18925786281957e-05
0.434,6.05778421255185e-06,3.18983930705153e-05
0.4345,6.06923958339938e-06,3.19041804811942e-05
0.435,6.08073796650714e-06,3.19099394767869e-05
0.4355,6.09227605012341e-06,3.19156686553108e-05
0.436,6.10385051551908e-06,3.19213665961331e-05
0.4365,6.1154580378034e-06,3.19270318598421e-05
0.437,6.12709528674156e-06,3.19326629881015e-05
0.4375,6.13875892757409e-06,3.19382585034883e-05
0.438,6.15044562183784e-06,3.19438169093141e-05
0.4385,6.16215202818834e-06,3.19493366894281e-05
0.439,6.1738748032234e-06,3.19548163080039e-05
0.4395,6.18561060230784e-06,3.19602542093088e-05
0.44,6.19735608039899e-06,3.19656488174557e-05
0.4405,6.209107892873e-06,3.19709985361388e-05
0.441,6.22086269635169e-06,3.19763017483524e-05
0.4415,6.23261714952968e-06,3.1981556816093e-05
0.442,6.24436791400189e-06,3.19867620800456e-05
0.4425,6.25611165509106e-06,3.19919158592539e-05
0.443,6.26784504267532e-06,3.19970164507749e-05
0.4435,6.27956475201562e-06,3.20020621293164e-05
0.444,6.29126746458297e-06,3.20070511468598e-05
0.4445,6.30294986888531e-06,3.20119817322657e-05
0.445,6.31460866129398e-06,3.20168520908633e-05
0.4455,6.32624054686944e-06,3.20216604040236e-05
0.446,6.33784224018641e-06,3.2026404828715e-05
0.4465,6.34941046615782e-06,3.20310834970425e-05
0.447,6.36094196085782e-06,3.20356945157699e-05
0.4475,6.37243347234328e-06,3.20402359658251e-05
0.448,6.38388176147391e-06,3.20447059017886e-05
0.4485,6.3952836027306e-06,3.20491023513659e-05
0.449,6.40663578503187e-06,3.20534233148439e-05
0.4495,6.41793511254833e-06,3.20576667645317e-05
0.45,6.42917840551479e-06,3.20618306441863e-05
0.4505,6.44036250103998e-06,3.20659128684249e-05
0.451,6.45148425391365e-06,3.20699113221226e-05
0.4515,6.46254053741074e-06,3.20738238597985e-05
0.452,6.4735282440926e-06,3.20776483049896e-05
0.4525,6.48444428660489e-06,3.20813824496142e-05
0.453,6.49528559847203e-06,3.20850240533265e-05
0.4535,6.50604913488811e-06,3.20885708428627e-05
0.454,6.51673187350383e-06,3.20920205113807e-05
0.4545,6.52733081520956e-06,3.20953707177951e-05
0.455,6.53784298491417e-06,3.20986190861079e-05
0.4555,6.54826543231964e-06,3.21017632047379e-05
0.456,6.5585952326912e-06,3.2104800625849e-05
0.4565,6.56882948762294e-06,3.21077288646787e-05
0.457,6.57896532579876e-06,3.21105453988694e-05
0.4575,6.58899990374849e-06,3.21132476678021e-05
0.458,6.59893040659909e-06,3.21158330719349e-05
0.4585,6.6087540488208e-06,3.21182989721472e-05
0.459,6.61846807496807e-06,3.21206426890902e-05
0.4595,6.62806976041532e-06,3.21228615025463e-05
0.46,6.63755641208715e-06,3.21249526507977e-05
0.4605,6.64692536918323e-06,3.21269133300059e-05
0.461,6.65617400389756e-06,3.2128740693603e-05
0.4615,6.66529972213205e-06,3.21304318516971e-05
0.462,6.67429996420432e-06,3.21319838704922e-05
0.4625,6.68317220554967e-06,3.21333937717252e-05
0.463,6.69191395741693e-06,3.21346585321208e-05
0.4635,6.70052276755818e-06,3.21357750828674e-05
0.464,6.70899622091208e-06,3.2136740309114e-05
0.4645,6.71733194028058e-06,3.21375510494927e-05
0.465,6.72552758699896e-06,3.21382040956659e-05
0.4655,6.73358086159877e-06,3.21386961919034e-05
0.466,6.74148950446357e-06,3.21390240346892e-05
0.4665,6.74925129647711e-06,3.21391842723613e-05
0.467,6.75686405966367e-06,3.21391735047866e-05
0.4675,6.7643256578203e-06,3.21389882830723e-05
0.468,6.77163399714064e-06,3.21386251093164e-05
0.4685,6.77878702682993e-06,3.21380804363985e-05
0.469,6.78578273971108e-06,3.21373506678135e-05
0.4695,6.79261917282127e-06,3.21364321575489e-05
0.47,6.79929440799887e-06,3.21353212100081e-05
0.4705,6.8058065724604e-06,3.21340140799808e-05
0.471,6.81215383936697e-06,3.21325069726624e-05
0.4715,6.81833442838011e-06,3.21307960437234e-05
0.472,6.82434660620642e-06,3.21288773994308e-05
0.4725,6.83018868713062e-06,3.21267470968227e-05
0.473,6.83585903353676e-06,3.21244011439373e-05
0.4735,6.84135605641712e-06,3.21218355000981e-05
0.474,6.84667821586829e-06,3.21190460762561e-05
0.4745,6.85182402157427e-06,3.21160287353904e-05
0.475,6.85679203327604e-06,3.21127792929687e-05
0.4755,6.86158086122735e-06,3.21092935174682e-05
0.476,6.86618916663637e-06,3.2105567130958e-05
0.4765,6.87061566209287e-06,3.21015958097444e-05
0.477,6.87485911198065e-06,3.2097375185079e-05
0.4775,6.87891833287497e-06,3.20929008439316e-05
0.478,6.88279219392455e-06,3.20881683298265e-05
0.4785,6.88647961721797e-06,3.20831731437454e-05
0.479,6.88997957813416e-06,3.20779107450947e-05
0.4795,6.89329110567653e-06,3.20723765527402e-05
0.48,6.89641328279062e-06,3.20665659461066e-05
0.4805,6.89934524666479e-06,3.20604742663446e-05
0.481,6.90208618901379e-06,3.20540968175646e-05
0.4815,6.90463535634468e-06,3.20474288681369e-05
0.482,6.90699205020516e-06,3.20404656520586e-05
0.4825,6.90915562741368e-06,3.2033202370387e-05
0.483,6.91112550027127e-06,3.20256341927393e-05
0.4835,6.91290113675491e-06,3.20177562588587e-05
0.484,6.91448206069191e-06,3.2009563680245e-05
0.4845,6.91586785191532e-06,3.20010515418512e-05
0.485,6.91705814639993e-06,3.19922149038437e-05
0.4855,6.91805263637861e-06,3.19830488034264e-05
0.486,6.91885107043872e-06,3.19735482567276e-05
0.4865,6.91945325359833e-06,3.19637082607487e-05
0.487,6.91985904736206e-06,3.19535237953747e-05
0.4875,6.92006836975639e-06,3.19429898254438e-05
0.488,6.92008119534424e-06,3.19321013028772e-05
0.4885,6.91989755521892e-06,3.19208531688675e-05
0.489,6.91951753697727e-06,3.19092403561228e-05
0.4895,6.91894128467213e-06,3.18972577911693e-05
0.49,6.9181689987442e-06,3.18849003967073e-05
0.4905,6.91720093593324e-06,3.18721630940228e-05
0.491,6.91603740916887e-06,3.18590408054514e-05
0.4915,6.91467878744094e-06,3.18455284568948e-05
0.492,6.9131254956496e-06,3.18316209803875e-05
0.4925,6.91137801443507e-06,3.18173133167135e-05
0.493,6.90943687998724e-06,3.18026004180708e-05
0.4935,6.90730268383499e-06,3.17874772507827e-05
0.494,6.90497607261536e-06,3.17719387980552e-05
0.4945,6.9024577478225e-06,3.1755980062778e-05
0.495,6.89974846553641e-06,3.17395960703691e-05
0.4955,6.89684903613146e-06,3.17227818716613e-05
0.496,6.89376032396476e-06,3.17055325458291e-05
0.4965,6.89048324704439e-06,3.16878432033548e-05
0.497,6.88701877667753e-06,3.1669708989034e-05
0.4975,6.8833679370986e-06,3.16511250850161e-05
0.498,6.87953180507757e-06,3.16320867138817e-05
0.4985,6.87551150950853e-06,3.16125891417533e-05
0.499,6.87130823097866e-06,3.15926276814378e-05
0.4995,6.86692320131795e-06,3.15721976956007e-05
0.5,6.86235770312966e-06,3.15512945999672e-05
0.5005,6.85761306930189e-06,3.15299138665514e-05
0.501,6.8526906825004e-06,3.15080510269093e-05
0.5015,6.84759197464306e-06,3.14857016754138e-05
0.502,6.84231842635614e-06,3.1462861472551e-05
0.5025,6.83687156641281e-06,3.14395261482327e-05
0.503,6.83125297115429e-06,3.14156915051256e-05
0.5035,6.82546426389392e-06,3.13913534219925e-05
0.504,6.81950711430469e-06,3.1366507857045e-05
0.5045,6.8133832377905e-06,3.13411508513038e-05
0.505,6.80709439484167e-06,3.13152785319648e-05
0.5055,6.80064239037516e-06,3.128888711577e-05
0.506,6.79402907305978e-06,3.12619729123778e-05
0.5065,6.78725633462715e-06,3.12345323277336e-05
0.507,6.78032610916861e-06,3.12065618674365e-05
0.5075,6.77324037241887e-06,3.11780581401004e-05
0.508,6.76600114102673e-06,3.11490178607064e-05
0.5085,6.7586104718136e-06,3.11194378539448e-05
0.509,6.75107046102018e-06,3.10893150575437e-05
0.5095,6.743383243542e-06,3.10586465255813e-05
0.51,6.73555099215422e-06,3.10274294317796e-05
0.5105,6.72757591672619e-06,3.09956610727762e-05
0.511,6.71946026342633e-06,3.09633388713724e-05
0.5115,6.71120631391767e-06,3.09304603797531e-05
0.512,6.70281638454451e-06,3.08970232826779e-05
0.5125,6.69429282551064e-06,3.08630254006389e-05
0.513,6.68563802004952e-06,3.08284646929837e-05
0.5135,6.67685438358669e-06,3.07933392609998e-05
0.514,6.66794436289503e-06,3.07576473509593e-05
0.5145,6.65891043524291e-06,3.07213873571205e-05
0.515,6.64975510753588e-06,3.06845578246829e-05
0.5155,6.64048091545214e-06,3.06471574526953e-05
0.516,6.63109042257202e-06,3.06091850969114e-05
0.5165,6.62158621950199e-06,3.05706397725931e-05
0.517,6.61197092299343e-06,3.05315206572555e-05
0.5175,6.60224717505656e-06,3.0491827093354e-05
0.518,6.59241764206991e-06,3.04515585909077e-05
0.5185,6.58248501388567e-06,3.04107148300578e-05
0.519,6.57245200293135e-06,3.03692956635574e-05
0.5195,6.56232134330816e-06,3.03273011191901e-05
0.52,6.5520957898864e-06,3.02847314021131e-05
0.5205,6.54177811739826e-06,3.02415868971243e-05
0.521,6.53137111952843e-06,3.01978681708483e-05
0.5215,6.52087760800279e-06,3.01535759738395e-05
0.522,6.51030041167562e-06,3.01087112425999e-05
0.5225,6.49964237561558e-06,3.00632751015089e-05
0.523,6.48890636019103e-06,3.00172688646622e-05
0.5235,6.4780952401549e-06,2.99706940376179e-05
0.524,6.46721190372973e-06,2.99235523190468e-05
0.5245,6.45625925169316e-06,2.98758456022845e-05
0.525,6.44524019646449e-06,2.9827575976784e-05
0.5255,6.43415766119267e-06,2.97787457294631e-05
0.526,6.42301457884624e-06,2.97293573459482e-05
0.5265,6.41181389130561e-06,2.96794135117083e-05
0.527,6.40055854845813e-06,2.96289171130801e-05
0.5275,6.3892515072964e-06,2.957787123818e-05
0.528,6.37789573102021e-06,2.95262791777028e-05
0.5285,6.36649418814234e-06,2.94741444256051e-05
0.529,6.35504985159893e-06,2.9421470679672e-05
0.5295,6.34356569786437e-06,2.93682618419671e-05
0.53,6.33204470607136e-06,2.93145220191641e-05
0.5305,6.32048985713632e-06,2.92602555227596e-05
0.531,6.30890413289049e-06,2.92054668691678e-05
0.5315,6.29729051521701e-06,2.91501607796947e-05
0.532,6.28565198519416e-06,2.90943421803936e-05
0.5325,6.27399152224516e-06,2.90380162017993e-05
0.533,6.26231210329464e-06,2.89811881785427e-05
0.5335,6.25061670193201e-06,2.89238636488438e-05
0.534,6.23890828758204e-06,2.88660483538838e-05
0.5345,6.22718982468266e-06,2.88077482370552e-05
0.535,6.21546427187029e-06,2.87489694430901e-05
0.5355,6.20373458117284e-06,2.86897183170666e-05
0.536,6.19200369721041e-06,2.86300014032943e-05
0.5365,6.18027455640395e-06,2.85698254440779e-05
0.537,6.16855008619182e-06,2.85091973783616e-05
0.5375,6.15683320425449e-06,2.84481243402543e-05
0.538,6.14512681774725e-06,2.83866136574371e-05
0.5385,6.13343382254116e-06,2.83246728494555e-05
0.539,6.12175710247212e-06,2.82623096258974e-05
0.5395,6.11009952859816e-06,2.81995318844605e-05
0.54,6.09846395846497e-06,2.81363477089086e-05
0.5405,6.08685323537966e-06,2.80727653669227e-05
0.541,6.07527018769276e-06,2.80087933078457e-05
0.5415,6.06371762808844e-06,2.79444401603256e-05
0.542,6.052198352883e-06,2.78797147298571e-05
0.5425,6.04071514133161e-06,2.78146259962266e-05
0.543,6.02927075494316e-06,2.77491831108594e-05
0.5435,6.01786793680337e-06,2.7683395394075e-05
0.544,6.00650941090609e-06,2.76172723322499e-05
0.5445,5.9951978814926e-06,2.75508235748929e-05
0.545,5.98393603239919e-06,2.74840589316328e-05
0.5455,5.97272652641275e-06,2.74169883691247e-05
0.546,5.96157200463448e-06,2.73496220078746e-05
0.5465,5.95047508585167e-06,2.72819701189873e-05
0.547,5.93943836591758e-06,2.72140431208393e-05
0.5475,5.92846441713924e-06,2.71458515756813e-05
0.548,5.9175557876734e-06,2.70774061861718e-05
0.5485,5.90671500093029e-06,2.70087177918463e-05
0.549,5.89594455498528e-06,2.69397973655241e-05
0.5495,5.88524692199843e-06,2.68706560096569e-05
0.55,5.87462454764169e-06,2.68013049526217e-05
0.5505,5.86407985053382e-06,2.67317555449607e-05
0.551,5.85361522168292e-06,2.66620192555717e-05
0.5515,5.8432330239364e-06,2.65921076678522e-05
0.552,5.83293559143839e-06,2.65220324757986e-05
0.5525,5.82272522909446e-06,2.64518054800645e-05
0.553,5.81260421204349e-06,2.63814385839807e-05
0.5535,5.80257478513659e-06,2.63109437895391e-05
0.554,5.79263916242302e-06,2.62403331933425e-05
0.5545,5.78279952664305e-06,2.61696189825247e-05
0.555,5.77305802872763e-06,2.60988134306414e-05
0.5555,5.76341678730495e-06,2.60279288935348e-05
0.556,5.75387788821391e-06,2.5956977805175e-05
0.5565,5.74444338402439e-06,2.58859726734798e-05
0.557,5.73511529356449e-06,2.58149260761153e-05
0.5575,5.72589560145463e-06,2.57438506562793e-05
0.558,5.71678625764871e-06,2.56727591184709e-05
0.5585,5.70778917698229e-06,2.56016642242458e-05
0.559,5.69890623872813e-06,2.55305787879631e-05
0.5595,5.69013928615917e-06,2.54595156725221e-05
0.56,5.68149012611921e-06,2.53884877850945e-05
0.5605,5.67296052860159e-06,2.53175080728518e-05
0.561,5.66455222633611e-06,2.52465895186912e-05
0.5615,5.65626691438441e-06,2.51757451369627e-05
0.562,5.64810624974414e-06,2.51049879691979e-05
0.5625,5.6400718509621e-06,2.50343310798442e-05
0.563,5.6321652977567e-06,2.4963787552005e-05
0.5635,5.62438813065001e-06,2.48933704831891e-05
0.564,5.61674185060945e-06,2.48230929810698e-05
0.5645,5.60922791869973e-06,2.47529681592566e-05
0.565,5.60184775574485e-06,2.46830091330805e-05
0.5655,5.59460274200066e-06,2.46132290153948e-05
0.566,5.58749421683808e-06,2.45436409123933e-05
0.5665,5.58052347843711e-06,2.44742579194463e-05
0.567,5.57369178349185e-06,2.44050931169581e-05
0.5675,5.56700034692665e-06,2.43361595662446e-05
0.568,5.56045034162352e-06,2.42674703054351e-05
0.5685,5.55404289816095e-06,2.41990383453973e-05
0.569,5.54777910456417e-06,2.41308766656888e-05
0.5695,5.54166000606705e-06,2.40629982105343e-05
0.57,5.53568660488573e-06,2.39954158848314e-05
0.5705,5.52985986000396e-06,2.39281425501849e-05
0.571,5.52418068697034e-06,2.38611910209714e-05
0.5715,5.51864995770752e-06,2.37945740604351e-05
0.572,5.51326850033333e-06,2.37283043768158e-05
0.5725,5.50803709899413e-06,2.36623946195106e-05
0.573,5.50295649371029e-06,2.35968573752698e-05
0.5735,5.49802738023393e-06,2.35317051644292e-05
0.574,5.49325040991902e-06,2.34669504371787e-05
0.5745,5.48862618960388e-06,2.34026055698697e-05
0.575,5.48415528150625e-06,2.33386828613607e-05
0.5755,5.47983820313074e-06,2.32751945294037e-05
0.576,5.47567542718907e-06,2.3212152707072e-05
0.5765,5.47166738153278e-06,2.31495694392297e-05
0.577,5.46781444909867e-06,2.30874566790443e-05
0.5775,5.46411696786691e-06,2.30258262845431e-05
0.578,5.46057523083176e-06,2.29646900152152e-05
0.5785,5.45718948598491e-06,2.29040595286572e-05
0.579,5.4539599363115e-06,2.28439463772674e-05
0.5795,5.45088673979862e-06,2.27843620049847e-05
0.58,5.44797000945631e-06,2.27253177440769e-05
0.5805,5.44520981335111e-06,2.26668248119755e-05
0.581,5.44260617465184e-06,2.26088943081602e-05
0.5815,5.44015907168789e-06,2.25515372110916e-05
0.582,5.43786843801962e-06,2.24947643751937e-05
0.5825,5.43573416252115e-06,2.2438586527886e-05
0.583,5.43375608947527e-06,2.23830142666658e-05
0.5835,5.43193401868063e-06,2.23280580562401e-05
0.584,5.43026770557108e-06,2.22737282257086e-05
0.5845,5.42875686134732e-06,2.22200349657977e-05
0.585,5.42740115312077e-06,2.21669883261441e-05
0.5855,5.42620020406981e-06,2.2114598212631e-05
0.586,5.42515359360831e-06,2.20628743847736e-05
0.5865,5.42426085756666e-06,2.20118264531577e-05
0.587,5.42352148838514e-06,2.19614638769275e-05
0.5875,5.42293493531985e-06,2.1911795961326e-05
0.588,5.42250060466102e-06,2.18628318552851e-05
0.5885,5.4222178599639e-06,2.18145805490667e-05
0.589,5.42208602229212e-06,2.17670508719548e-05
0.5895,5.42210437047347e-06,2.17202514899967e-05
0.59,5.42227214136823e-06,2.16741909037951e-05
0.5905,5.42258853014987e-06,2.16288774463491e-05
0.591,5.4230526905982e-06,2.15843192809459e-05
0.5915,5.42366373540489e-06,2.15405243991003e-05
0.592,5.4244207364914e-06,2.14975006185445e-05
0.5925,5.42532272533915e-06,2.14552555812667e-05
0.593,5.42636869333205e-06,2.14137967515977e-05
0.5935,5.42755759211128e-06,2.13731314143465e-05
0.594,5.42888833394226e-06,2.13332666729845e-05
0.5945,5.43035979209371e-06,2.12942094478772e-05
0.595,5.43197080122887e-06,2.12559664745636e-05
0.5955,5.43372015780862e-06,2.12185443020837e-05
0.596,5.43560662050651e-06,2.11819492913528e-05
0.5965,5.43762891063564e-06,2.11461876135832e-05
0.597,5.43978571258726e-06,2.11112652487515e-05
0.5975,5.44207567428105e-06,2.1077187984113e-05
0.598,5.44449740762706e-06,2.10439614127614e-05
0.5985,5.44704948899928e-06,2.10115909322343e-05
0.599,5.44973045972074e-06,2.09800817431635e-05
0.5995,5.45253882656021e-06,2.09494388479707e-05
0.6,5.45547306224035e-06,2.09196670496086e-05
0.6005,5.45853160595735e-06,2.08907709503458e-05
0.601,5.46171286391186e-06,2.08627549505985e-05
0.6015,5.46501520985118e-06,2.08356232478056e-05
0.602,5.46843698562268e-06,2.08093798353507e-05
0.6025,5.47197650173816e-06,2.07840285015295e-05
0.603,5.47563203794922e-06,2.07595728285626e-05
0.6035,5.47940184383345e-06,2.07360161916558e-05
0.604,5.48328413939122e-06,2.07133617581064e-05
0.6045,5.4872771156532e-06,2.06916124864566e-05
0.605,5.49137893529812e-06,2.06707711256951e-05
0.6055,5.49558773328088e-06,2.06508402145057e-05
0.606,5.49990161747076e-06,2.06318220805646e-05
0.6065,5.50431866929958e-06,2.06137188398859e-05
0.607,5.50883694441962e-06,2.05965323962161e-05
0.6075,5.51345447337136e-06,2.05802644404771e-05
0.608,5.51816926226066e-06,2.05649164502585e-05
0.6085,5.52297929344554e-06,2.05504896893584e-05
0.609,5.52788252623236e-06,2.0536985207374e-05
0.6095,5.53287689758139e-06,2.05244038393402e-05
0.61,5.53796032282164e-06,2.05127462054179e-05
0.6105,5.54313069637494e-06,2.05020127106305e-05
0.611,5.54838589248922e-06,2.04922035446501e-05
0.6115,5.55372376598085e-06,2.04833186816318e-05
0.612,5.55914215298605e-06,2.04753578800968e-05
0.6125,5.56463887172113e-06,2.04683206828654e-05
0.613,5.5702117232517e-06,2.04622064170379e-05
0.6135,5.57585849227045e-06,2.04570141940258e-05
0.614,5.5815769478836e-06,2.04527429096316e-05
0.6145,5.58736484440572e-06,2.04493912441789e-05
0.615,5.5932199221628e-06,2.04469576626918e-05
0.6155,5.59913990830343e-06,2.04454404151255e-05
0.616,5.60512251761774e-06,2.0444837536646e-05
0.6165,5.61116545336414e-06,2.04451468479621e-05
0.617,5.61726640810332e-06,2.04463659557078e-05
0.6175,5.62342306453947e-06,2.04484922528762e-05
0.618,5.62963309636846e-06,2.04515229193061e-05
0.6185,5.63589416913258e-06,2.04554549222197e-05
0.619,5.64220394108173e-06,2.04602850168137e-05
0.6195,5.64856006404064e-06,2.04660097469019e-05
0.62,5.65496018428197e-06,2.04726254456114e-05
0.6205,5.66140194340484e-06,2.04801282361313e-05
0.621,5.66788297921863e-06,2.04885140325138e-05
0.6215,5.67440092663175e-06,2.0497778540529e-05
0.622,5.68095341854498e-06,2.05079172585721e-05
0.6225,5.68753808674921e-06,2.05189254786239e-05
0.623,5.69415256282722e-06,2.05307982872639e-05
0.6235,5.70079447905919e-06,2.05435305667362e-05
0.624,5.7074614693317e-06,2.0557116996069e-05
0.6245,5.71415117004984e-06,2.05715520522455e-05
0.625,5.72086122105202e-06,2.05868300114288e-05
0.6255,5.72758926652734e-06,2.06029449502378e-05
0.626,5.73433295593491e-06,2.06198907470766e-05
0.6265,5.74108994492496e-06,2.06376610835144e-05
0.627,5.74785789626114e-06,2.06562494457179e-05
0.6275,5.75463448074387e-06,2.0675649125934e-05
0.628,5.76141737813421e-06,2.0695853224024e-05
0.6285,5.76820427807775e-06,2.07168546490465e-05
0.629,5.77499288102842e-06,2.0738646120892e-05
0.6295,5.78178089917156e-06,2.07612201719648e-05
0.63,5.78856605734594e-06,2.07845691489155e-05
0.6305,5.79534609396453e-06,2.08086852144198e-05
0.631,5.80211876193334e-06,2.08335603490069e-05
0.6315,5.80888182956834e-06,2.08591863529334e-05
0.632,5.81563308150978e-06,2.0885554848104e-05
0.6325,5.82237031963368e-06,2.09126572800379e-05
0.633,5.82909136396019e-06,2.09404849198792e-05
0.6335,5.83579405355825e-06,2.09690288664521e-05
0.634,5.84247624744628e-06,2.09982800483581e-05
0.6345,5.84913582548846e-06,2.10282292261164e-05
0.635,5.85577068928611e-06,2.10588669943454e-05
0.6355,5.86237876306375e-06,2.10901837839858e-05
0.636,5.86895799454948e-06,2.11221698645635e-05
0.6365,5.87550635584907e-06,2.11548153464932e-05
0.637,5.8820218443134e-06,2.1188110183422e-05
0.6375,5.88850248339884e-06,2.12220441746111e-05
0.638,5.89494632352002e-06,2.12566069673592e-05
0.6385,5.90135144289452e-06,2.12917880594623e-05
0.639,5.90771594837919e-06,2.1327576801715e-05
0.6395,5.91403797629724e-06,2.13639624004483e-05
0.64,5.92031569325607e-06,2.14009339201075e-05
0.6405,5.92654729695491e-06,2.1438480285867e-05
0.641,5.93273101698204e-06,2.14765902862834e-05
0.6415,5.938865115601e-06,2.15152525759854e-05
0.642,5.94494788852531e-06,2.15544556784006e-05
0.6425,5.95097766568134e-06,2.15941879885182e-05
0.643,5.9569528119588e-06,2.16344377756877e-05
0.6435,5.96287172794857e-06,2.16751931864521e-05
0.644,5.96873285066743e-06,2.17164422474168e-05
0.6445,5.97453465426936e-06,2.17581728681522e-05
0.645,5.98027565074309e-06,2.18003728441316e-05
0.6455,5.98595439059551e-06,2.18430298597024e-05
0.646,5.99156946352073e-06,2.18861314910922e-05
0.6465,5.99711949905418e-06,2.19296652094493e-05
0.647,6.00260316721178e-06,2.19736183839163e-05
0.6475,6.00801917911341e-06,2.20179782847393e-05
0.648,6.01336628759064e-06,2.20627320864105e-05
0.6485,6.0186432877781e-06,2.21078668708444e-05
0.649,6.02384901768818e-06,2.2153369630589e-05
0.6495,6.02898235876866e-06,2.21992272720693e-05
0.65,6.0340422364429e-06,2.22454266188646e-05
0.6505,6.03902762063218e-06,2.22919544150187e-05
0.651,6.04393752625991e-06,2.23387973283821e-05
0.6515,6.04877101373754e-06,2.23859419539861e-05
0.652,6.05352718943161e-06,2.24333748174479e-05
0.6525,6.05820520611214e-06,2.24810823784066e-05
0.653,6.06280426338176e-06,2.25290510339886e-05
0.6535,6.06732360808584e-06,2.25772671223023e-05
0.654,6.07176253470315e-06,2.26257169259606e-05
0.6545,6.07612038571732e-06,2.2674386675631e-05
0.655,6.08039655196867e-06,2.27232625536122e-05
0.6555,6.08459047298671e-06,2.2772330697435e-05
0.656,6.08870163730311e-06,2.28215772034893e-05
0.6565,6.09272958274512e-06,2.28709881306727e-05
0.657,6.09667389670951e-06,2.29205495040625e-05
0.6575,6.10053421641706e-06,2.29702473186088e-05
0.658,6.1043102291475e-06,2.30200675428479e-05
0.6585,6.10800167245506e-06,2.30699961226351e-05
0.659,6.11160833436452e-06,2.31200189848961e-05
0.6595,6.11513005354785e-06,2.31701220413957e-05
0.66,6.11856671948137e-06,2.32202911925219e-05
0.6605,6.12191827258349e-06,2.32705123310863e-05
0.661,6.12518470433295e-06,2.33207713461375e-05
0.6615,6.12836605736778e-06,2.33710541267867e-05
0.662,6.13146242556478e-06,2.34213465660449e-05
0.6625,6.13447395409981e-06,2.34716345646693e-05
0.663,6.13740083948894e-06,2.35219040350187e-05
0.6635,6.14024332961048e-06,2.35721409049152e-05
0.664,6.14300172370821e-06,2.36223311215117e-05
0.6645,6.14567637237583e-06,2.36724606551648e-05
0.665,6.14826767752281e-06,2.37225155033096e-05
0.6655,6.15077609232184e-06,2.37724816943383e-05
0.666,6.15320212113811e-06,2.3822345291479e-05
0.6665,6.15554631944046e-06,2.38720923966759e-05
0.667,6.15780929369472e-06,2.39217091544678e-05
0.6675,6.15999170123936e-06,2.39711817558665e-05
0.668,6.16209425014372e-06,2.40204964422317e-05
0.6685,6.16411769904888e-06,2.40696395091427e-05
0.669,6.16606285699156e-06,2.41185973102663e-05
0.6695,6.16793058321098e-06,2.41673562612179e-05
0.67,6.16972178693905e-06,2.42159028434167e-05
0.6705,6.17143742717389e-06,2.42642236079325e-05
0.671,6.1730785124369e-06,2.43123051793229e-05
0.6715,6.17464610051337e-06,2.43601342594596e-05
0.672,6.17614129817694e-06,2.44076976313429e-05
0.6725,6.17756526089779e-06,2.44549821629015e-05
0.673,6.17891919253489e-06,2.45019748107776e-05
0.6735,6.18020434501215e-06,2.45486626240943e-05
0.674,6.18142201797884e-06,2.45950327482057e-05
0.6745,6.18257355845419e-06,2.46410724284256e-05
0.675,6.18366036045631e-06,2.46867690137365e-05
0.6755,6.18468386461566e-06,2.47321099604745e-05
0.676,6.18564555777314e-06,2.47770828359912e-05
0.6765,6.18654697256294e-06,2.48216753222897e-05
0.677,6.18738968698038e-06,2.48658752196344e-05
0.6775,6.18817532393478e-06,2.49096704501321e-05
0.678,6.1889055507877e-06,2.49530490612848e-05
0.6785,6.18958207887663e-06,2.49959992295107e-05
0.679,6.19020666302444e-06,2.50385092636333e-05
0.6795,6.19078110103481e-06,2.50805676083375e-05
0.68,6.19130723317378e-06,2.51221628475887e-05
0.6805,6.19178694163789e-06,2.51632837080163e-05
0.681,6.19222215000888e-06,2.52039190622578e-05
0.6815,6.19261482269532e-06,2.52440579322618e-05
0.682,6.19296696436142e-06,2.52836894925499e-05
0.6825,6.19328061934309e-06,2.5322803073433e-05
0.683,6.19355787105156e-06,2.53613881641825e-05
0.6835,6.19380084136468e-06,2.5399434416154e-05
0.684,6.19401169000617e-06,2.54369316458608e-05
0.6845,6.1941926139128e-06,2.54738698379973e-05
0.685,6.19434584658983e-06,2.55102391484101e-05
0.6855,6.1944736574547e-06,2.55460299070143e-05
0.686,6.19457835116915e-06,2.55812326206565e-05
0.6865,6.19466226695987e-06,2.56158379759199e-05
0.687,6.19472777792782e-06,2.56498368418731e-05
0.6875,6.1947772903462e-06,2.56832202727603e-05
0.688,6.1948132429473e-06,2.57159795106322e-05
0.6885,6.19483810619821e-06,2.57481059879158e-05
0.689,6.19485438156548e-06,2.57795913299241e-05
0.6895,6.19486460076893e-06,2.58104273573019e-05
0.69,6.19487132502459e-06,2.58406060884088e-05
0.6905,6.19487714427697e-06,2.58701197416379e-05
0.691,6.19488467642065e-06,2.58989607376674e-05
0.6915,6.19489656651143e-06,2.59271217016468e-05
0.692,6.19491548596701e-06,2.59545954653133e-05
0.6925,6.19494413175735e-06,2.59813750690399e-05
0.693,6.19498522558472e-06,2.60074537638122e-05
0.6935,6.19504151305348e-06,2.60328250131341e-05
0.694,6.19511576282977e-06,2.60574824948603e-05
0.6945,6.19521076579097e-06,2.60814201029562e-05
0.695,6.19532933416524e-06,2.61046319491836e-05
0.6955,6.19547430066105e-06,2.61271123647119e-05
0.696,6.19564851758699e-06,2.61488559016556e-05
0.6965,6.19585485596191e-06,2.61698573345356e-05
0.697,6.19609620461557e-06,2.61901116616678e-05
0.6975,6.19637546927986e-06,2.62096141064753e-05
0.698,6.19669557167092e-06,2.62283601187282e-05
0.6985,6.19705944856205e-06,2.62463453757078e-05
0.699,6.19747005084777e-06,2.62635657832993e-05
0.6995,6.19793034259912e-06,2.62800174770103e-05
0.7,6.19844330011038e-06,2.62956968229181e-05
0.7005,6.19901191093745e-06,2.63106004185455e-05
0.701,6.1996391729282e-06,2.63247250936658e-05
0.7015,6.20032809324494e-06,2.6338067911038e-05
0.702,6.20108168737939e-06,2.63506261670727e-05
0.7025,6.20190297816053e-06,2.63623973924291e-05
0.703,6.20279499475556e-06,2.63733793525444e-05
0.7035,6.20376077166453e-06,2.63835700480956e-05
0.704,6.20480334770887e-06,2.6392967715394e-05
0.7045,6.20592576501438e-06,2.64015708267154e-05
0.705,6.20713106798891e-06,2.64093780905629e-05
0.7055,6.20842230229529e-06,2.64163884518672e-05
0.706,6.2098025138198e-06,2.64226010921224e-05
0.7065,6.21127474763658e-06,2.64280154294586e-05
0.707,6.21284204696832e-06,2.64326311186532e-05
0.7075,6.21450745214374e-06,2.64364480510807e-05
0.708,6.21627399955212e-06,2.64394663546027e-05
0.7085,6.21814472059537e-06,2.64416863933976e-05
0.709,6.22012264063802e-06,2.64431087677335e-05
0.7095,6.22221077795566e-06,2.64437343136826e-05
0.71,6.22441214268207e-06,2.64435641027789e-05
0.7105,6.22672973575569e-06,2.64425994416209e-05
0.711,6.22916654786572e-06,2.64408418714185e-05
0.7115,6.23172555839823e-06,2.64382931674858e-05
0.712,6.23440973438285e-06,2.64349553386792e-05
0.7125,6.23722202944023e-06,2.64308306267834e-05
0.713,6.24016538273086e-06,2.64259215058428e-05
0.7135,6.24324271790554e-06,2.64202306814412e-05
0.714,6.24645694205796e-06,2.64137610899286e-05
0.7145,6.24981094467975e-06,2.64065158975957e-05
0.715,6.25330759661847e-06,2.63984984997972e-05
0.7155,6.25694974903869e-06,2.63897125200219e-05
0.716,6.26074023238684e-06,2.63801618089128e-05
0.7165,6.2646818553598e-06,2.63698504432351e-05
0.717,6.26877740387783e-06,2.63587827247936e-05
0.7175,6.27302964006198e-06,2.63469631792989e-05
0.718,6.27744130121632e-06,2.63343965551838e-05
0.7185,6.28201509881541e-06,2.63210878223698e-05
0.719,6.28675371749718e-06,2.63070421709836e-05
0.7195,6.29165981406171e-06,2.62922650100248e-05
0.72,6.29673601647616e-06,2.62767619659854e-05
0.7205,6.30198492288626e-06,2.62605388814204e-05
0.721,6.30740910063464e-06,2.62436018134714e-05
0.7215,6.31301108528642e-06,2.62259570323424e-05
0.722,6.31879337966222e-06,2.62076110197295e-05
0.7225,6.32475845287914e-06,2.61885704672031e-05
0.723,6.33090873939974e-06,2.61688422745447e-05
0.7235,6.33724663808965e-06,2.61484335480375e-05
0.724,6.34377451128386e-06,2.6127351598711e-05
0.7245,6.35049468386221e-06,2.61056039405403e-05
0.725,6.35740944233419e-06,2.60831982885988e-05
0.7255,6.36452103393361e-06,2.6060142557166e-05
0.726,6.37183166572309e-06,2.60364448577892e-05
0.7265,6.37934350370906e-06,2.60121134972989e-05
0.727,6.38705867196719e-06,2.59871569757791e-05
0.7275,6.3949792517788e-06,2.59615839844918e-05
0.728,6.40310728077835e-06,2.59354034037558e-05
0.7285,6.41144475211243e-06,2.59086243007809e-05
0.729,6.41999361361035e-06,2.5881255927457e-05
0.7295,6.42875576696676e-06,2.58533077181005e-05
0.73,6.43773306693641e-06,2.58247892871564e-05
0.7305,6.44692732054135e-06,2.57957104268587e-05
0.731,6.45634028629084e-06,2.57660811048499e-05
0.7315,6.46597367341405e-06,2.57359114617597e-05
0.732,6.4758291411058e-06,2.57052118087452e-05
0.7325,6.48590829778565e-06,2.56739926249922e-05
0.733,6.49621270037024e-06,2.56422645551808e-05
0.7335,6.50674385355939e-06,2.56100384069137e-05
0.734,6.51750320913594e-06,2.55773251481102e-05
0.7345,6.52849216527957e-06,2.55441359043654e-05
0.735,6.53971206589482e-06,2.55104819562765e-05
0.7355,6.55116419995343e-06,2.54763747367359e-05
0.736,6.56284980085125e-06,2.54418258281916e-05
0.7365,6.57477004577992e-06,2.54068469598772e-05
0.737,6.58692605511349e-06,2.53714500050102e-05
0.7375,6.59931889181039e-06,2.53356469779606e-05
0.738,6.61194956083076e-06,2.52994500313896e-05
0.7385,6.62481900856952e-06,2.526287145336e-05
0.739,6.63792812230537e-06,2.52259236644182e-05
0.7395,6.6512777296659e-06,2.51886192146488e-05
0.74,6.66486859810903e-06,2.51509707807034e-05
0.7405,6.67870143442098e-06,2.51129911628025e-05
0.741,6.69277688423096e-06,2.50746932817132e-05
0.7415,6.70709553154288e-06,2.50360901757019e-05
0.742,6.72165789828428e-06,2.49971949974634e-05
0.7425,6.73646444387257e-06,2.49580210110266e-05
0.743,6.75151556479909e-06,2.49185815886379e-05
0.7435,6.76681159423083e-06,2.48788902076214e-05
0.744,6.78235280163039e-06,2.48389604472179e-05
0.7445,6.7981393923942e-06,2.47988059854024e-05
0.745,6.81417150750928e-06,2.47584405956804e-05
0.7455,6.83044922322898e-06,2.47178781438639e-05
0.746,6.84697255076775e-06,2.46771325848272e-05
0.7465,6.86374143601545e-06,2.46362179592436e-05
0.747,6.88075575927129e-06,2.45951483903023e-05
0.7475,6.89801533499783e-06,2.45539380804074e-05
0.748,6.91551991159518e-06,2.4512601307858e-05
0.7485,6.93326917119566e-06,2.44711524235101e-05
0.749,6.95126272947919e-06,2.44296058474212e-05
0.7495,6.96950013550951e-06,2.43879760654769e-05
0.75,6.98798087159146e-06,2.43462776259998e-05
0.7505,7.00670435314958e-06,2.43045251363426e-05
0.751,7.02566992862794e-06,2.42627332594627e-05
0.7515,7.04487687941154e-06,2.4220916710482e-05
0.752,7.06432441976924e-06,2.41790902532296e-05
0.7525,7.08401169681838e-06,2.41372686967696e-05
0.753,7.10393779051113e-06,2.40954668919132e-05
0.7535,7.12410171364258e-06,2.40536997277173e-05
0.754,7.1445024118807e-06,2.40119821279676e-05
0.7545,7.16513876381814e-06,2.39703290476498e-05
0.755,7.186009581046e-06,2.39287554694061e-05
0.7555,7.20711360824946e-06,2.38872763999799e-05
0.756,7.22844952332543e-06,2.38459068666477e-05
0.7565,7.25001593752218e-06,2.38046619136391e-05
0.757,7.27181139560094e-06,2.3763556598544e-05
0.7575,7.29383437601947e-06,2.37226059887093e-05
0.758,7.31608329113761e-06,2.36818251576231e-05
0.7585,7.3385564874446e-06,2.36412291812876e-05
0.759,7.36125224580823e-06,2.36008331345814e-05
0.7595,7.38416878174573e-06,2.35606520876108e-05
0.76,7.40730424571611e-06,2.35207011020512e-05
0.7605,7.43065672343404e-06,2.3480995227478e-05
0.761,7.45422423620495e-06,2.34415494976884e-05
0.7615,7.47800474128136e-06,2.34023789270147e-05
0.762,7.50199613224018e-06,2.33634985066284e-05
0.7625,7.52619623938085e-06,2.33249232008374e-05
0.763,7.55060283014426e-06,2.32866679433747e-05
0.7635,7.5752136095521e-06,2.32487476336811e-05
0.764,7.60002622066663e-06,2.32111771331812e-05
0.7645,7.62503824507071e-06,2.31739712615528e-05
0.765,7.65024720336783e-06,2.3137144792991e-05
0.7655,7.67565055570206e-06,2.31007124524667e-05
0.766,7.70124570229769e-06,2.30646889119805e-05
0.7665,7.72702998401843e-06,2.30290887868116e-05
0.767,7.75300068294579e-06,2.29939266317641e-05
0.7675,7.77915502297672e-06,2.29592169374085e-05
0.768,7.80549017044004e-06,2.29249741263229e-05
0.7685,7.83200323473161e-06,2.28912125493307e-05
0.769,7.85869126896798e-06,2.28579464817389e-05
0.7695,7.8855512706584e-06,2.28251901195758e-05
0.77,7.91258018239493e-06,2.279295757583e-05
0.7705,7.93977489256042e-06,2.27612628766915e-05
0.771,7.9671322360543e-06,2.27301199577943e-05
0.7715,7.99464899503585e-06,2.26995426604643e-05
0.772,8.02232189968477e-06,2.26695447279694e-05
0.7725,8.05014762897897e-06,2.26401398017765e-05
0.773,8.07812281148917e-06,2.26113414178121e-05
0.7735,8.10624402619018e-06,2.25831630027306e-05
0.774,8.13450780328864e-06,2.25556178701884e-05
0.7745,8.16291062506682e-06,2.25287192171258e-05
0.775,8.19144892674238e-06,2.25024801200567e-05
0.7755,8.22011909734369e-06,2.24769135313673e-05
0.776,8.24891748060048e-06,2.2452032275624e-05
0.7765,8.27784037584961e-06,2.24278490458913e-05
0.777,8.30688403895552e-06,2.24043764000615e-05
0.7775,8.33604468324516e-06,2.23816267571961e-05
0.778,8.36531848045704e-06,2.23596123938811e-05
0.7785,8.39470156170408e-06,2.23383454405962e-05
0.779,8.42419001844985e-06,2.23178378781005e-05
0.7795,8.45377990349793e-06,2.22981015338361e-05
0.78,8.48346723199385e-06,2.22791480783489e-05
0.7805,8.51324798243937e-06,2.22609890217322e-05
0.781,8.54311809771857e-06,2.22436357100899e-05
0.7815,8.57307348613527e-06,2.22270993220245e-05
0.782,8.6031100224614e-06,2.22113908651494e-05
0.7825,8.63322354899581e-06,2.21965211726273e-05
0.783,8.66340987663308e-06,2.21825008997366e-05
0.7835,8.6936647859418e-06,2.21693405204659e-05
0.784,8.72398402825193e-06,2.2157050324139e-05
0.7845,8.75436332675084e-06,2.21456404120723e-05
0.785,8.78479837758746e-06,2.21351206942636e-05
0.7855,8.81528485098425e-06,2.21255008861173e-05
0.786,8.8458183923564e-06,2.21167905052044e-05
0.7865,8.87639462343785e-06,2.21089988680609e-05
0.787,8.90700914341352e-06,2.21021350870262e-05
0.7875,8.93765753005733e-06,2.20962080671218e-05
0.788,8.96833534087539e-06,2.20912265029746e-05
0.7885,8.99903811425375e-06,2.20871988757838e-05
0.789,9.02976137061015e-06,2.20841334503358e-05
0.7895,9.0605006135491e-06,2.20820382720665e-05
0.79,9.09125133101957e-06,2.20809211641744e-05
0.7905,9.12200899647476e-06,2.20807897247853e-05
0.791,9.15276907003302e-06,2.20816513241698e-05
0.7915,9.18352699963948e-06,2.20835131020161e-05
0.792,9.21427822222744e-06,2.20863819647585e-05
0.7925,9.24501816487899e-06,2.20902645829636e-05
0.793,9.27574224598407e-06,2.20951673887748e-05
0.7935,9.30644587639726e-06,2.21010965734176e-05
0.794,9.33712446059153e-06,2.21080580847652e-05
0.7945,9.3677733978082e-06,2.21160576249677e-05
0.795,9.39838808320225e-06,2.21251006481438e-05
0.7955,9.42896390898235e-06,2.21351923581378e-05
0.796,9.45949626554458e-06,2.21463377063425e-05
0.7965,9.48998054259931e-06,2.21585413895877e-05
0.797,9.52041213029047e-06,2.21718078480974e-05
0.7975,9.55078642030645e-06,2.21861412635147e-05
0.798,9.58109880698224e-06,2.22015455569961e-05
0.7985,9.61134468839226e-06,2.22180243873756e-05
0.799,9.64151946743341e-06,2.22355811493995e-05
0.7995,9.67161855289819e-06,2.22542189720325e-05
0.8,9.70163736053749e-06,2.22739407168358e-05
0.8005,9.73157131411291e-06,2.22947489764178e-05
0.801,9.76141584643827e-06,2.23166460729576e-05
0.8015,9.79116640041017e-06,2.23396340568018e-05
0.802,9.82081843002752e-06,2.23637147051355e-05
0.8025,9.85036740139969e-06,2.23888895207271e-05
0.803,9.87980879374342e-06,2.24151597307473e-05
0.8035,9.90913810036832e-06,2.24425262856629e-05
0.804,9.93835082965109e-06,2.2470989858205e-05
0.8045,9.96744250599835e-06,2.25005508424127e-05
0.805,9.99640867079822e-06,2.25312093527509e-05
0.8055,1.00252448833608e-05,2.25629652233039e-05
0.806,1.00539467218472e-05,2.25958180070442e-05
0.8065,1.00825097841881e-05,2.26297669751765e-05
0.807,1.01109296889907e-05,2.26648111165567e-05
0.8075,1.01392020764352e-05,2.27009491371872e-05
0.808,1.016732260916e-05,2.27381794597867e-05
0.8085,1.01952869731365e-05,2.27765002234355e-05
0.809,1.02230908785331e-05,2.28159092832958e-05
0.8095,1.02507300605673e-05,2.28564042104072e-05
0.81,1.02782002803488e-05,2.28979822915556e-05
0.8105,1.03054973257096e-05,2.2940640529217e-05
0.811,1.03326170120243e-05,2.29843756415748e-05
0.8115,1.03595551830186e-05,2.30291840626093e-05
0.812,1.0386307711567e-05,2.30750619422605e-05
0.8125,1.04128705004782e-05,2.31220051466622e-05
0.813,1.04392394832695e-05,2.31700092584475e-05
0.8135,1.04654106249289e-05,2.3219069577124e-05
0.814,1.04913799226655e-05,2.326918111952e-05
0.8145,1.05171434066477e-05,2.33203386202985e-05
0.815,1.05426971407289e-05,2.33725365325403e-05
0.8155,1.05680372231614e-05,2.34257690283946e-05
0.816,1.05931597872976e-05,2.34800299997968e-05
0.8165,1.06180610022796e-05,2.35353130592526e-05
0.817,1.06427370737154e-05,2.35916115406881e-05
0.8175,1.06671842443448e-05,2.36489185003655e-05
0.818,1.06913987946913e-05,2.37072267178634e-05
0.8185,1.07153770437037e-05,2.37665286971219e-05
0.819,1.07391153493846e-05,2.38268166675518e-05
0.8195,1.07626101094073e-05,2.38880825852081e-05
0.82,1.07858577617218e-05,2.39503181340268e-05
0.8205,1.08088547851474e-05,2.40135147271256e-05
0.821,1.08315976999556e-05,2.40776635081681e-05
0.8215,1.08540830684403e-05,2.41427553527913e-05
0.822,1.0876307495477e-05,2.42087808700967e-05
0.8225,1.08982676290713e-05,2.42757304042034e-05
0.823,1.09199601608952e-05,2.43435940358657e-05
0.8235,1.09413818268131e-05,2.44123615841522e-05
0.824,1.09625294073967e-05,2.44820226081885e-05
0.8245,1.09833997284284e-05,2.4552566408963e-05
0.825,1.10039896613939e-05,2.46239820311959e-05
0.8255,1.10242961239634e-05,2.46962582652726e-05
0.826,1.10443160804623e-05,2.4769383649241e-05
0.8265,1.10640465423292e-05,2.48433464708738e-05
0.827,1.1083484568564e-05,2.49181347697976e-05
0.8275,1.11026272661633e-05,2.49937363396869e-05
0.828,1.11214717905444e-05,2.50701387305265e-05
0.8285,1.11400153459577e-05,2.51473292509412e-05
0.829,1.11582551858861e-05,2.52252949705932e-05
0.8295,1.11761886134334e-05,2.53040227226489e-05
0.83,1.1193812981699e-05,2.53834991063147e-05
0.8305,1.12111256941409e-05,2.54637104894419e-05
0.831,1.12281242049258e-05,2.55446430112014e-05
0.8315,1.12448060192671e-05,2.56262825848284e-05
0.832,1.12611686937499e-05,2.57086149004373e-05
0.8325,1.12772098366442e-05,2.57916254279058e-05
0.833,1.12929271082056e-05,2.58752994198309e-05
0.8335,1.13083182209644e-05,2.59596219145528e-05
0.834,1.13233809400023e-05,2.60445777392513e-05
0.8345,1.13381130832174e-05,2.61301515131109e-05
0.835,1.13525125215783e-05,2.62163276505562e-05
0.8355,1.13665771793658e-05,2.63030903645581e-05
0.836,1.13803050344049e-05,2.63904236700084e-05
0.8365,1.13936941182844e-05,2.6478311387165e-05
0.837,1.14067425165682e-05,2.65667371451653e-05
0.8375,1.14194483689946e-05,2.66556843856084e-05
0.838,1.14318098696677e-05,2.6745136366206e-05
0.8385,1.14438252672385e-05,2.68350761645004e-05
0.839,1.14554928650778e-05,2.69254866816502e-05
0.8395,1.14668110214399e-05,2.70163506462826e-05
0.84,1.14777781496192e-05,2.71076506184125e-05
0.8405,1.1488392718098e-05,2.71993689934275e-05
0.841,1.14986532506874e-05,2.72914880061381e-05
0.8415,1.15085583266606e-05,2.73839897348939e-05
0.842,1.15181065808801e-05,2.74768561057643e-05
0.8425,1.15272967039173e-05,2.75700688967827e-05
0.843,1.15361274421666e-05,2.76636097422559e-05
0.8435,1.15445975979526e-05,2.77574601371351e-05
0.844,1.15527060296324e-05,2.78516014414505e-05
0.8445,1.15604516516915e-05,2.79460148848064e-05
0.845,1.15678334348338e-05,2.80406815709385e-05
0.8455,1.15748504060679e-05,2.81355824823295e-05
0.846,1.15815016487871e-05,2.82306984848852e-05
0.8465,1.1587786302845e-05,2.83260103326681e-05
0.847,1.15937035646277e-05,2.84214986726889e-05
0.8475,1.1599252687121e-05,2.85171440497543e-05
0.848,1.16044329799744e-05,2.86129269113704e-05
0.8485,1.16092438095617e-05,2.87088276127019e-05
0.849,1.16136845990385e-05,2.88048264215845e-05
0.8495,1.16177548283969e-05,2.8900903523591e-05
0.85,1.16214540345169e-05,2.89970390271497e-05
0.8505,1.16247818112163e-05,2.90932129687139e-05
0.851,1.16277378092965e-05,2.9189405317982e-05
0.8515,1.16303217365876e-05,2.92855959831666e-05
0.852,1.16325333579899e-05,2.93817648163114e-05
0.8525,1.16343724955131e-05,2.94778916186549e-05
0.853,1.16358390283135e-05,2.95739561460404e-05
0.8535,1.16369328927282e-05,2.96699381143692e-05
0.854,1.16376540823067e-05,2.97658172050976e-05
0.8545,1.16380026478398e-05,2.98615730707747e-05
0.855,1.16379786973851e-05,2.99571853406206e-05
0.8555,1.16375823962898e-05,3.00526336261425e-05
0.856,1.16368139672096e-05,3.0147897526788e-05
0.8565,1.16356736901243e-05,3.02429566356323e-05
0.857,1.16341619023489e-05,3.0337790545099e-05
0.8575,1.16322789985411e-05,3.04323788527114e-05
0.858,1.16300254307038e-05,3.05267011668728e-05
0.8585,1.16274017081828e-05,3.06207371126731e-05
0.859,1.16244083976595e-05,3.07144663377202e-05
0.8595,1.16210461231385e-05,3.08078685179934e-05
0.86,1.16173155659293e-05,3.09009233637157e-05
0.8605,1.16132174646224e-05,3.09936106252442e-05
0.861,1.16087526150588e-05,3.1085910098974e-05
0.8615,1.16039218702943e-05,3.11778016332547e-05
0.862,1.15987261405556e-05,3.12692651343152e-05
0.8625,1.15931663931906e-05,3.13602805721952e-05
0.863,1.15872436526108e-05,3.14508279866797e-05
0.8635,1.15809590002258e-05,3.15408874932331e-05
0.864,1.15743135743701e-05,3.16304392889314e-05
0.8645,1.15673085702207e-05,3.17194636583871e-05
0.865,1.15599452397061e-05,3.18079409796649e-05
0.8655,1.15522248914056e-05,3.18958517301844e-05
0.866,1.15441488904387e-05,3.19831764926061e-05
0.8665,1.15357186583441e-05,3.20698959606975e-05
0.867,1.15269356729484e-05,3.21559909451752e-05
0.8675,1.15178014682231e-05,3.22414423795199e-05
0.868,1.15083176341302e-05,3.23262313257614e-05
0.8685,1.14984858164562e-05,3.24103389802287e-05
0.869,1.14883077166335e-05,3.24937466792638e-05
0.8695,1.14777850915495e-05,3.25764359048954e-05
0.87,1.14669197533422e-05,3.26583882904691e-05
0.8705,1.14557135691835e-05,3.27395856262325e-05
0.871,1.14441684610479e-05,3.28200098648715e-05
0.8715,1.14322864054687e-05,3.28996431269962e-05
0.872,1.14200694332786e-05,3.29784677065723e-05
0.8725,1.1407519629337e-05,3.30564660762982e-05
0.873,1.13946391322422e-05,3.31336208929227e-05
0.8735,1.13814301340281e-05,3.32099150025031e-05
0.874,1.1367894879846e-05,3.32853314455999e-05
0.8745,1.13540356676301e-05,3.33598534624065e-05
0.875,1.13398548477466e-05,3.34334644978118e-05
0.8755,1.13253548226272e-05,3.35061482063913e-05
0.876,1.13105380463842e-05,3.35778884573272e-05
0.8765,1.12954070244101e-05,3.36486693392515e-05
0.877,1.1279964312959e-05,3.37184751650126e-05
0.8775,1.12642125187117e-05,3.37872904763609e-05
0.878,1.12481542983237e-05,3.38551000485519e-05
0.8785,1.12317923579556e-05,3.39218888948642e-05
0.879,1.12151294527876e-05,3.39876422710314e-05
0.8795,1.11981683865177e-05,3.40523456795843e-05
0.88,1.11809120108423e-05,3.41159848741039e-05
0.8805,1.11633632249219e-05,3.41785458633816e-05
0.881,1.11455249748303e-05,3.42400149154876e-05
0.8815,1.11274002529884e-05,3.43003785617454e-05
0.882,1.11089920975824e-05,3.43596236006114e-05
0.8825,1.10903035919673e-05,3.44177371014603e-05
0.883,1.10713378640564e-05,3.44747064082752e-05
0.8835,1.10520980856961e-05,3.45305191432424e-05
0.884,1.10325874720287e-05,3.45851632102513e-05
0.8845,1.10128092808412e-05,3.46386267982977e-05
0.885,1.09927668119034e-05,3.46908983847932e-05
0.8855,1.09724634062939e-05,3.47419667387772e-05
0.886,1.09519024457159e-05,3.47918209240341e-05
0.8865,1.09310873518026e-05,3.48404503021138e-05
0.887,1.09100215854141e-05,3.48878445352556e-05
0.8875,1.08887086459246e-05,3.49339935892155e-05
0.888,1.08671520705022e-05,3.49788877359974e-05
0.8885,1.08453554333809e-05,3.5022517556486e-05
0.889,1.08233223451259e-05,3.50648739429843e-05
0.8895,1.08010564518918e-05,3.5105948101653e-05
0.89,1.07785614346758e-05,3.51457315548542e-05
0.8905,1.07558410085655e-05,3.51842161433982e-05
0.891,1.07328989219815e-05,3.52213940286942e-05
0.8915,1.0709738955916e-05,3.52572576948053e-05
0.892,1.0686364923168e-05,3.52917999504075e-05
0.8925,1.06627806675746e-05,3.53250139306536e-05
0.893,1.06389900632399e-05,3.53568930989414e-05
0.8935,1.06149970137605e-05,3.53874312485861e-05
0.894,1.05908054514503e-05,3.54166225043977e-05
0.8945,1.05664193365616e-05,3.54444613241628e-05
0.895,1.05418426565062e-05,3.54709425000293e-05
0.8955,1.05170794250747e-05,3.54960611597967e-05
0.896,1.04921336816545e-05,3.55198127681082e-05
0.8965,1.04670094904479e-05,3.55421931275469e-05
0.897,1.04417109396892e-05,3.5563198379634e-05
0.8975,1.04162421408618e-05,3.55828250057297e-05
0.898,1.03906072279158e-05,3.56010698278345e-05
0.8985,1.03648103564852e-05,3.56179300092919e-05
0.899,1.0338855703106e-05,3.5633403055391e-05
0.8995,1.03127474644348e-05,3.56474868138679e-05
0.9,1.02864898564684e-05,3.56601794753059e-05
0.9005,1.02600871137642e-05,3.56714795734336e-05
0.901,1.02335434886611e-05,3.56813859853204e-05
0.9015,1.02068632505027e-05,3.56898979314685e-05
0.902,1.01800506848605e-05,3.56970149758023e-05
0.9025,1.01531100927589e-05,3.57027370255532e-05
0.903,1.01260457899012e-05,3.57070643310415e-05
0.9035,1.00988621058972e-05,3.57099974853538e-05
0.904,1.00715633834923e-05,3.57115374239166e-05
0.9045,1.00441539777971e-05,3.57116854239663e-05
0.905,1.0016638255519e-05,3.57104431039151e-05
0.9055,9.98902059419513e-06,3.57078124226125e-05
0.906,9.96130538142571e-06,3.5703795678504e-05
0.9065,9.93349701410912e-06,3.56983955086849e-05
0.907,9.90559989767734e-06,3.56916148878505e-05
0.9075,9.87761844533229e-06,3.56834571271421e-05
0.908,9.84955707728259e-06,3.56739258728882e-05
0.9085,9.82142021998059e-06,3.56630251052416e-05
0.909,9.79321230535952e-06,3.56507591367108e-05
0.9095,9.76493777007053e-06,3.56371326105855e-05
0.91,9.73660105471956e-06,3.56221504992577e-05
0.9105,9.70820660310365e-06,3.56058181024351e-05
0.911,9.67975886144683e-06,3.55881410452501e-05
0.9115,9.65126227763544e-06,3.55691252762612e-05
0.912,9.62272130045264e-06,3.55487770653506e-05
0.9125,9.59414037881227e-06,3.55271030015145e-05
0.913,9.56552396099191e-06,3.55041099905505e-05
0.9135,9.53687649386492e-06,3.54798052526394e-05
0.914,9.50820242213154e-06,3.54541963198259e-05
0.9145,9.47950618754879e-06,3.54272910333961e-05
0.915,9.45079222815919e-06,3.53990975411552e-05
0.9155,9.42206497751806e-06,3.53696242946071e-05
0.916,9.39332886391939e-06,3.53388800460357e-05
0.9165,9.36458830962012e-06,3.53068738454914e-05
0.917,9.33584773006277e-06,3.52736150376838e-05
0.9175,9.30711153309634e-06,3.52391132587823e-05
0.918,9.27838411819529e-06,3.52033784331264e-05
0.9185,9.24966987567674e-06,3.51664207698469e-05
0.919,9.22097318591564e-06,3.51282507594011e-05
0.9195,9.19229841855809e-06,3.50888791700216e-05
0.92,9.16364993173285e-06,3.50483170440814e-05
0.9205,9.13503207126108e-06,3.50065756943765e-05
0.921,9.10644916986451e-06,3.4963666700327e-05
0.9215,9.07790554637222e-06,3.49196019040985e-05
0.922,9.04940550492622e-06,3.48743934066446e-05
0.9225,9.02095333418606e-06,3.48280535636726e-05
0.923,8.99255330653272e-06,3.47805949815332e-05
0.9235,8.9642096772719e-06,3.47320305130372e-05
0.924,8.93592668383708e-06,3.46823732531984e-05
0.9245,8.90770854499222e-06,3.46316365349079e-05
0.925,8.87955946003466e-06,3.45798339245393e-05
0.9255,8.85148360799791e-06,3.45269792174873e-05
0.926,8.8234851468549e-06,3.44730864336431e-05
0.9265,8.79556821272145e-06,3.44181698128076e-05
0.927,8.76773691906037e-06,3.43622438100447e-05
0.9275,8.73999535588622e-06,3.43053230909784e-05
0.928,8.71234758897084e-06,3.42474225270344e-05
0.9285,8.68479765904993e-06,3.41885571906297e-05
0.929,8.65734958103076e-06,3.41287423503129e-05
0.9295,8.63000734320115e-06,3.40679934658563e-05
0.93,8.60277490643997e-06,3.40063261833041e-05
0.9305,8.57565620342929e-06,3.39437563299771e-05
0.931,8.54865513786836e-06,3.38802999094375e-05
0.9315,8.52177558368962e-06,3.38159730964163e-05
0.932,8.49502138427699e-06,3.37507922317043e-05
0.9325,8.46839635168671e-06,3.36847738170096e-05
0.933,8.44190426587081e-06,3.36179345097848e-05
0.9335,8.41554887390368e-06,3.35502911180239e-05
0.934,8.3893338892118e-06,3.34818605950323e-05
0.9345,8.36326299080691e-06,3.34126600341727e-05
0.935,8.33733982252293e-06,3.33427066635861e-05
0.9355,8.31156799225672e-06,3.32720178408934e-05
0.936,8.28595107121315e-06,3.32006110478758e-05
0.9365,8.26049259315452e-06,3.31285038851387e-05
0.937,8.23519605365494e-06,3.30557140667589e-05
0.9375,8.21006490935985e-06,3.29822594149168e-05
0.938,8.18510257725111e-06,3.29081578545158e-05
0.9385,8.16031243391816e-06,3.28334274077897e-05
0.939,8.13569781483544e-06,3.27580861888992e-05
0.9395,8.11126201364672e-06,3.26821523985192e-05
0.94,8.08700828145648e-06,3.26056443184179e-05
0.9405,8.06293982612882e-06,3.25285803060286e-05
0.941,8.03905981159424e-06,3.24509787890159e-05
0.9415,8.01537135716442e-06,3.23728582598368e-05
0.942,7.99187753685552e-06,3.22942372702984e-05
0.9425,7.96858137872e-06,3.22151344261134e-05
0.943,7.94548586418732e-06,3.21355683814541e-05
0.9435,7.92259392741379e-06,3.20555578335078e-05
0.944,7.8999084546417e-06,3.1975121517034e-05
0.9445,7.877432283568e-06,3.18942781989253e-05
0.945,7.85516820272285e-06,3.18130466727746e-05
0.9455,7.83311895085822e-06,3.173144575345e-05
0.946,7.81128721634691e-06,3.1649494271679e-05
0.9465,7.78967563659212e-06,3.15672110686448e-05
0.947,7.76828679744804e-06,3.14846149905965e-05
0.9475,7.74712323265167e-06,3.14017248834749e-05
0.948,7.72618742326602e-06,3.13185595875566e-05
0.9485,7.70548179713521e-06,3.12351379321174e-05
0.949,7.68500872835136e-06,3.11514787301176e-05
0.9495,7.66477053673378e-06,3.10676007729105e-05
0.95,7.64476948732046e-06,3.09835228249763e-05
0.9505,7.62500778987211e-06,3.0899263618682e-05
0.951,7.60548759838887e-06,3.08148418490698e-05
0.9515,7.58621101063976e-06,3.07302761686754e-05
0.952,7.56718006770517e-06,3.06455851823761e-05
0.9525,7.54839675353217e-06,3.05607874422723e-05
0.953,7.52986299450302e-06,3.04759014426017e-05
0.9535,7.51158065901669e-06,3.03909456146887e-05
0.954,7.49355155708362e-06,3.03059383219297e-05
0.9545,7.4757774399336e-06,3.02208978548149e-05
0.955,7.45825999963693e-06,3.01358424259886e-05
0.9555,7.44100086873878e-06,3.00507901653484e-05
0.956,7.42400161990672e-06,2.99657591151844e-05
0.9565,7.40726376559149e-06,2.98807672253584e-05
0.957,7.3907887577009e-06,2.97958323485253e-05
0.9575,7.37457798728694e-06,2.97109722353967e-05
0.958,7.35863278424597e-06,2.96262045300467e-05
0.9585,7.3429544170322e-06,2.95415467652625e-05
0.959,7.32754409238443e-06,2.94570163579383e-05
0.9595,7.31240295506609e-06,2.9372630604515e-05
0.96,7.29753208761882e-06,2.92884066764641e-05
0.9605,7.28293251012955e-06,2.92043616158191e-05
0.961,7.2686051800113e-06,2.91205123307519e-05
0.9615,7.25455099179771e-06,2.90368755911971e-05
0.962,7.24077077695137e-06,2.89534680245236e-05
0.9625,7.22726530368613e-06,2.88703061112543e-05
0.963,7.21403527680333e-06,2.87874061808353e-05
0.9635,7.20108133754201e-06,2.87047844074548e-05
0.964,7.18840406344326e-06,2.86224568059126e-05
0.9645,7.17600396822865e-06,2.85404392275421e-05
0.965,7.16388150169277e-06,2.84587473561846e-05
0.9655,7.15203704961017e-06,2.83773967042176e-05
0.966,7.14047093365645e-06,2.82964026086387e-05
0.9665,7.12918341134386e-06,2.82157802272049e-05
0.967,7.11817467597117e-06,2.81355445346306e-05
0.9675,7.10744485658806e-06,2.80557103188431e-05
0.968,7.09699401797384e-06,2.79762921772987e-05
0.9685,7.08682216063061e-06,2.78973045133598e-05
0.969,7.07692922079073e-06,2.78187615327345e-05
0.9695,7.06731507043852e-06,2.77406772399795e-05
0.97,7.0579795173463e-06,2.76630654350679e-05
0.9705,7.0489223051245e-06,2.7585939710023e-05
0.971,7.04014311328591e-06,2.75093134456185e-05
0.9715,7.03164155732406e-06,2.74331998081474e-05
0.972,7.02341718880563e-06,2.73576117462595e-05
0.9725,7.01546949547695e-06,2.72825619878683e-05
0.973,7.0077979013846e-06,2.72080630371291e-05
0.9735,7.00040176701006e-06,2.71341271714885e-05
0.974,6.99328038941849e-06,2.70607664388056e-05
0.9745,6.9864330024216e-06,2.69879926545459e-05
0.975,6.97985877675449e-06,2.69158173990488e-05
0.9755,6.97355682026672e-06,2.68442520148684e-05
0.976,6.96752617812725e-06,2.67733076041891e-05
0.9765,6.96176583304353e-06,2.67029950263164e-05
0.977,6.95627470549465e-06,2.66333248952423e-05
0.9775,6.9510516539786e-06,2.65643075772878e-05
0.978,6.94609547527358e-06,2.64959531888225e-05
0.9785,6.94140490471346e-06,2.64282715940612e-05
0.979,6.93697861647733e-06,2.6361272402939e-05
0.9795,6.93281522389313e-06,2.62949649690666e-05
0.98,6.92891327975525e-06,2.62293583877646e-05
0.9805,6.92527127665624e-06,2.61644614941801e-05
0.981,6.92188764733249e-06,2.61002828614838e-05
0.9815,6.91876076502387e-06,2.6036830799152e-05
0.982,6.91588894384753e-06,2.59741133513303e-05
0.9825,6.91327043918557e-06,2.59121382952835e-05
0.983,6.91090344808687e-06,2.58509131399306e-05
0.9835,6.90878610968297e-06,2.57904451244653e-05
0.984,6.90691650561796e-06,2.57307412170645e-05
0.9845,6.90529266049246e-06,2.56718081136833e-05
0.985,6.90391254232167e-06,2.56136522369386e-05
0.9855,6.90277406300741e-06,2.55562797350811e-05
0.986,6.90187507882423e-06,2.54996964810562e-05
0.9865,6.90121339091953e-06,2.54439080716542e-05
0.987,6.90078674582767e-06,2.53889198267512e-05
0.9875,6.900592835998e-06,2.5334736788639e-05
0.988,6.90062930033683e-06,2.52813637214464e-05
0.9885,6.90089372476324e-06,2.52288051106509e-05
0.989,6.90138364277869e-06,2.51770651626822e-05
0.9895,6.90209653605034e-06,2.51261478046157e-05
0.99,6.90302983500808e-06,2.5076056683959e-05
0.9905,6.90418091945512e-06,2.50267951685288e-05
0.991,6.90554711919239e-06,2.49783663464199e-05
0.9915,6.90712571465643e-06,2.49307730260656e-05
0.992,6.9089139375712e-06,2.48840177363899e-05
0.9925,6.91090897161363e-06,2.48381027270509e-05
0.993,6.91310795309315e-06,2.47930299687761e-05
0.9935,6.91550797164516e-06,2.47488011537883e-05
0.994,6.91810607093862e-06,2.47054176963235e-05
0.9945,6.92089924939766e-06,2.46628807332387e-05
0.995,6.92388446093747e-06,2.4621191124712e-05
0.9955,6.92705861571416e-06,2.45803494550309e-05
0.996,6.93041858088889e-06,2.4540356033473e-05
0.9965,6.933961181406e-06,2.45012108952747e-05
0.997,6.9376832007853e-06,2.44629138026894e-05
0.9975,6.94158138192818e-06,2.44254642461356e-05
0.998,6.94565242793776e-06,2.43888614454316e-05
0.9985,6.94989300295279e-06,2.43531043511192e-05
0.999,6.95429973299525e-06,2.43181916458737e-05
0.9995,6.95886920683148e-06,2.4284121746001e-05
1,6.96359797684692e-06,2.42508928030206e-05
1.0005,6.96848255993399e-06,2.42185027053335e-05
1.001,6.97351943839338e-06,2.41869490799754e-05
1.0015,6.97870506084828e-06,2.41562292944537e-05
1.002,6.98403584317172e-06,2.41263404586674e-05
1.0025,6.98950816942659e-06,2.40972794269099e-05
1.003,6.99511839281855e-06,2.40690427999528e-05
1.0035,7.00086283666138e-06,2.40416269272101e-05
1.004,7.00673779535481e-06,2.40150279089822e-05
1.0045,7.01273953537461e-06,2.39892415987781e-05
1.005,7.01886429627474e-06,2.39642636057148e-05
1.0055,7.02510829170157e-06,2.39400892969935e-05
1.006,7.03146771041971e-06,2.39167138004509e-05
1.0065,7.03793871734948e-06,2.38941320071858e-05
1.007,7.04451745461584e-06,2.38723385742582e-05
1.0075,7.05120004260833e-06,2.38513279274625e-05
1.008,7.05798258105218e-06,2.38310942641727e-05
1.0085,7.06486115009019e-06,2.38116315562589e-05
1.009,7.07183181137527e-06,2.37929335530745e-05
1.0095,7.07889060917349e-06,2.37749937845148e-05
1.01,7.0860335714774e-06,2.37578055641436e-05
1.0105,7.09325671112946e-06,2.374136199239e-05
1.011,7.10055602695527e-06,2.37256559598124e-05
1.0115,7.1079275049064e-06,2.37106801504304e-05
1.012,7.11536711921254e-06,2.36964270451228e-05
1.0125,7.12287083354262e-06,2.36828889250923e-05
1.013,7.13043460217465e-06,2.36700578753935e-05
1.0135,7.13805437117392e-06,2.36579257885262e-05
1.014,7.14572607957922e-06,2.36464843680909e-05
1.0145,7.15344566059666e-06,2.36357251325058e-05
1.015,7.16120904280083e-06,2.36256394187848e-05
1.0155,7.16901215134268e-06,2.36162183863751e-05
1.016,7.17685090916395e-06,2.36074530210518e-05
1.0165,7.18472123821748e-06,2.35993341388698e-05
1.017,7.19261906069311e-06,2.35918523901711e-05
1.0175,7.20054030024862e-06,2.35849982636447e-05
1.018,7.20848088324527e-06,2.35787620904394e-05
1.0185,7.2164367399873e-06,2.35731340483258e-05
1.019,7.22440380596505e-06,2.35681041659077e-05
1.0195,7.23237802310096e-06,2.35636623268791e-05
1.02,7.2403553409979e-06,2.35597982743268e-05
1.0205,7.2483317181894e-06,2.35565016150751e-05
1.021,7.25630312339093e-06,2.35537618240714e-05
1.0215,7.26426553675184e-06,2.35515682488109e-05
1.022,7.27221495110721e-06,2.35499101137982e-05
1.0225,7.28014737322912e-06,2.35487765250442e-05
1.023,7.28805882507656e-06,2.35481564745955e-05
1.0235,7.29594534504351e-06,2.35480388450964e-05
1.024,7.30380298920452e-06,2.35484124143799e-05
1.0245,7.31162783255717e-06,2.35492658600867e-05
1.025,7.31941597026079e-06,2.3550587764311e-05
1.0255,7.32716351887098e-06,2.35523666182709e-05
1.026,7.33486661756916e-06,2.35545908270023e-05
1.0265,7.34252142938677e-06,2.3557248714074e-05
1.027,7.35012414242351e-06,2.35603285263233e-05
1.0275,7.35767097105898e-06,2.35638184386105e-05
1.028,7.36515815715737e-06,2.35677065585898e-05
1.0285,7.37258197126438e-06,2.35719809314965e-05
1.029,7.37993871379595e-06,2.35766295449476e-05
1.0295,7.38722471621823e-06,2.3581640333755e-05
1.03,7.39443634221799e-06,2.35870011847494e-05
1.0305,7.40156998886298e-06,2.35926999416125e-05
1.031,7.40862208775156e-06,2.35987244097169e-05
1.0315,7.41558910615096e-06,2.3605062360971e-05
1.032,7.42246754812343e-06,2.36117015386672e-05
1.0325,7.42925395563985e-06,2.36186296623325e-05
1.033,7.43594490967986e-06,2.36258344325787e-05
1.0335,7.44253703131807e-06,2.36333035359523e-05
1.034,7.44902698279552e-06,2.364102464978e-05
1.0345,7.45541146857574e-06,2.36489854470121e-05
1.035,7.46168723638472e-06,2.36571736010587e-05
1.0355,7.46785107823409e-06,2.36655767906205e-05
1.036,7.47389983142674e-06,2.36741827045117e-05
1.0365,7.47983037954428e-06,2.36829790464737e-05
1.037,7.48563965341555e-06,2.36919535399789e-05
1.0375,7.49132463206563e-06,2.37010939330247e-05
1.038,7.49688234364452e-06,2.37103880029135e-05
1.0385,7.50230986633497e-06,2.37198235610213e-05
1.039,7.50760432923864e-06,2.37293884575508e-05
1.0395,7.5127629132401e-06,2.3739070586269e-05
1.04,7.51778285184787e-06,2.3748857889228e-05
1.0405,7.52266143201178e-06,2.37587383614671e-05
1.041,7.52739599491623e-06,2.37687000556948e-05
1.0415,7.53198393674842e-06,2.37787310869505e-05
1.042,7.53642270944115e-06,2.37888196372419e-05
1.0425,7.54070982138947e-06,2.37989539601597e-05
1.043,7.5448428381406e-06,2.38091223854662e-05
1.0435,7.54881938305644e-06,2.3819313323656e-05
1.044,7.55263713794816e-06,2.38295152704895e-05
1.0445,7.55629384368207e-06,2.38397168114956e-05
1.045,7.55978730075623e-06,2.38499066264422e-05
1.0455,7.56311536984714e-06,2.3860073493774e-05
1.046,7.56627597232568e-06,2.38702062950151e-05
1.0465,7.56926709074199e-06,2.3880294019134e-05
1.047,7.57208676927837e-06,2.38903257668703e-05
1.0475,7.57473311416997e-06,2.39002907550204e-05
1.048,7.57720429409275e-06,2.39101783206803e-05
1.0485,7.57949854051849e-06,2.39199779254437e-05
1.049,7.58161414803658e-06,2.39296791595533e-05
1.0495,7.58354947464275e-06,2.39392717460023e-05
1.05,7.58530294199456e-06,2.39487455445863e-05
1.0505,7.58687303563389e-06,2.39580905559e-05
1.051,7.5882583051765e-06,2.39672969252802e-05
1.0515,7.58945736446885e-06,2.39763549466899e-05
1.052,7.59046889171223e-06,2.39852550665435e-05
1.0525,7.59129162955462e-06,2.39939878874707e-05
1.053,7.59192438515042e-06,2.40025441720156e-05
1.0535,7.59236603018853e-06,2.4010914846272e-05
1.054,7.59261550088915e-06,2.40190910034503e-05
1.0545,7.59267179796985e-06,2.40270639073763e-05
1.055,7.59253398658155e-06,2.40348249959195e-05
1.0555,7.59220119621486e-06,2.40423658843492e-05
1.056,7.5916726205777e-06,2.40496783686171e-05
1.0565,7.59094751744483e-06,2.40567544285646e-05
1.057,7.59002520848006e-06,2.40635862310536e-05
1.0575,7.58890507903209e-06,2.40701661330188e-05
1.058,7.5875865779048e-06,2.407648668444e-05
1.0585,7.5860692171028e-06,2.40825406312334e-05
1.059,7.58435257155325e-06,2.4088320918061e-05
1.0595,7.58243627880457e-06,2.40938206910555e-05
1.06,7.58032003870315e-06,2.4099033300462e-05
1.0605,7.57800361304869e-06,2.41039523031938e-05
1.061,7.57548682522901e-06,2.41085714653022e-05
1.0615,7.57276955983526e-06,2.41128847643602e-05
1.062,7.5698517622582e-06,2.4116886391759e-05
1.0625,7.56673343826653e-06,2.4120570754916e-05
1.063,7.56341465356792e-06,2.41239324793947e-05
1.0635,7.55989553335371e-06,2.41269664109353e-05
1.064,7.55617626182788e-06,2.41296676173951e-05
1.0645,7.55225708172133e-06,2.41320313905971e-05
1.065,7.54813829379186e-06,2.41340532480881e-05
1.0655,7.54382025631091e-06,2.41357289348021e-05
1.066,7.53930338453756e-06,2.41370544246305e-05
1.0665,7.53458815018054e-06,2.41380259218974e-05
1.067,7.52967508084888e-06,2.4138639862737e-05
1.0675,7.52456475949187e-06,2.41388929163748e-05
1.068,7.51925782382888e-06,2.41387819863086e-05
1.0685,7.51375496576969e-06,2.41383042113901e-05
1.069,7.50805693082589e-06,2.41374569668036e-05
1.0695,7.5021645175138e-06,2.41362378649429e-05
1.07,7.4960785767495e-06,2.41346447561827e-05
1.0705,7.4898000112365e-06,2.4132675729546e-05
1.071,7.48332977484631e-06,2.41303291132633e-05
1.0715,7.47666887199266e-06,2.41276034752257e-05
1.072,7.46981835699943e-06,2.41244976233284e-05
1.0725,7.46277933346311e-06,2.4121010605706e-05
1.073,7.45555295360975e-06,2.41171417108561e-05
1.0735,7.44814041764719e-06,2.41128904676536e-05
1.074,7.44054297311258e-06,2.41082566452515e-05
1.0745,7.43276191421582e-06,2.41032402528698e-05
1.075,7.42479858117903e-06,2.40978415394703e-05
1.0755,7.41665435957244e-06,2.40920609933166e-05
1.076,7.408330679647e-06,2.4085899341419e-05
1.0765,7.39982901566389e-06,2.40793575488627e-05
1.077,7.39115088522125e-06,2.40724368180202e-05
1.0775,7.38229784857833e-06,2.40651385876467e-05
1.078,7.37327150797723e-06,2.40574645318585e-05
1.0785,7.3640735069625e-06,2.40494165589961e-05
1.079,7.3547055296987e-06,2.40409968103712e-05
1.0795,7.34516930028619e-06,2.40322076588994e-05
1.08,7.33546658207521e-06,2.40230517076198e-05
1.0805,7.32559917697849e-06,2.4013531788102e-05
1.081,7.31556892478244e-06,2.40036509587441e-05
1.0815,7.30537770245704e-06,2.39934125029603e-05
1.082,7.29502742346452e-06,2.39828199272626e-05
1.0825,7.2845200370669e-06,2.39718769592363e-05
1.083,7.27385752763248e-06,2.39605875454125e-05
1.0835,7.26304191394124e-06,2.39489558490376e-05
1.084,7.25207524848943e-06,2.3936986247743e-05
1.0845,7.24095961679334e-06,2.39246833311159e-05
1.085,7.2296971366925e-06,2.39120518981727e-05
1.0855,7.2182899576525e-06,2.38990969547375e-05
1.086,7.20674026006774e-06,2.38858237107274e-05
1.0865,7.19505025456441e-06,2.38722375773466e-05
1.087,7.18322218130402e-06,2.38583441641915e-05
1.0875,7.17125830928781e-06,2.38441492762699e-05
1.088,7.15916093566235e-06,2.38296589109361e-05
1.0885,7.14693238502667e-06,2.38148792547455e-05
1.089,7.13457500874124e-06,2.37998166802304e-05
1.0895,7.122091184239e-06,2.3784477742602e-05
1.09,7.10948331433881e-06,2.37688691763789e-05
1.0905,7.09675382656154e-06,2.37529978919478e-05
1.091,7.083905172449e-06,2.37368709720575e-05
1.0915,7.070939826886e-06,2.37204956682505e-05
1.092,7.0578602874257e-06,2.37038793972351e-05
1.0925,7.0446690736183e-06,2.36870297372005e-05
1.093,7.03136872634353e-06,2.36699544240781e-05
1.0935,7.01796180714671e-06,2.3652661347753e-05
1.094,7.00445089757878e-06,2.36351585482271e-05
1.0945,6.99083859854025e-06,2.36174542117377e-05
1.095,6.97712752962929e-06,2.35995566668333e-05
1.0955,6.96332032849401e-06,2.35814743804113e-05
1.096,6.94941965018893e-06,2.35632159537179e-05
1.0965,6.93542816653594e-06,2.35447901183142e-05
1.097,6.92134856548965e-06,2.35262057320103e-05
1.0975,6.90718355050727e-06,2.35074717747704e-05
1.098,6.89293583992314e-06,2.34885973445908e-05
1.0985,6.87860816632803e-06,2.34695916533527e-05
1.099,6.86420327595315e-06,2.34504640226528e-05
1.0995,6.84972392805917e-06,2.34312238796131e-05
1.1,6.83517289433023e-06,2.3411880752672e-05
1.1005,6.82055295827317e-06,2.33924442673597e-05
1.101,6.80586691462189e-06,2.33729241420584e-05
1.1015,6.79111756874725e-06,2.33533301837503e-05
1.102,6.77630773607243e-06,2.33336722837551e-05
1.1025,6.76144024149388e-06,2.33139604134591e-05
1.103,6.746517918808e-06,2.3294204620037e-05
1.1035,6.73154361014369e-06,2.32744150221698e-05
1.104,6.71652016540063e-06,2.32546018057598e-05
1.1045,6.70145044169357e-06,2.32347752196437e-05
1.105,6.68633730280252e-06,2.32149455713086e-05
1.1055,6.67118361862892e-06,2.31951232226089e-05
1.106,6.65599226465774e-06,2.31753185854893e-05
1.1065,6.64076612142563e-06,2.3155542117714e-05
1.107,6.6255080739949e-06,2.31358043186044e-05
1.1075,6.61022101143345e-06,2.31161157247865e-05
1.108,6.5949078263005e-06,2.30964869059512e-05
1.1085,6.57957141413811e-06,2.30769284606267e-05
1.109,6.56421467296831e-06,2.30574510119673e-05
1.1095,6.54884050279589e-06,2.30380652035577e-05
1.11,6.53345180511668e-06,2.30187816952357e-05
1.1105,6.5180514824312e-06,2.29996111589343e-05
1.111,6.50264243776371e-06,2.29805642745437e-05
1.1115,6.48722757418636e-06,2.29616517257966e-05
1.112,6.47180979434846e-06,2.29428841961747e-05
1.1125,6.45639200001062e-06,2.29242723648416e-05
1.113,6.44097709158365e-06,2.29058269026e-05
1.1135,6.42556796767203e-06,2.2887558467876e-05
1.114,6.41016752462176e-06,2.28694777027312e-05
1.1145,6.39477865607241e-06,2.28515952289041e-05
1.115,6.37940425251312e-06,2.2833921643881e-05
1.1155,6.36404720084236e-06,2.28164675169986e-05
1.116,6.34871038393129e-06,2.2799243385578e-05
1.1165,6.33339668019028e-06,2.27822597510915e-05
1.117,6.31810896313862e-06,2.27655270753635e-05
1.1175,6.30285010097683e-06,2.27490557768053e-05
1.118,6.28762295616162e-06,2.27328562266857e-05
1.1185,6.272430384983e-06,2.27169387454374e-05
1.119,6.25727523714329e-06,2.27013135989998e-05
1.1195,6.24216035533784e-06,2.26859909952e-05
1.12,6.2270885748369e-06,2.26709810801718e-05
1.1205,6.21206272306856e-06,2.26562939348138e-05
1.121,6.19708561920222e-06,2.26419395712865e-05
1.1215,6.18216007373229e-06,2.26279279295511e-05
1.122,6.16728888806183e-06,2.26142688739482e-05
1.1225,6.15247485408584e-06,2.26009721898186e-05
1.123,6.13772075377379e-06,2.25880475801671e-05
1.1235,6.12302935875138e-06,2.25755046623688e-05
1.124,6.10840342988117e-06,2.256335296492e-05
1.1245,6.09384571684206e-06,2.25516019242333e-05
1.125,6.0793589577076e-06,2.25402608814785e-05
1.1255,6.06494587852292e-06,2.25293390794695e-05
1.126,6.05060919288042e-06,2.25188456595979e-05
1.1265,6.03635160149409e-06,2.25087896588138e-05
1.127,6.0221757917724e-06,2.2499180006655e-05
1.1275,6.00808443738984e-06,2.24900255223238e-05
1.128,5.99408019785678e-06,2.24813349118145e-05
1.1285,5.98016571808789e-06,2.24731167650897e-05
1.129,5.96634362796883e-06,2.24653795533069e-05
1.1295,5.95261654192121e-06,2.24581316260969e-05
1.13,5.93898705846587e-06,2.24513812088935e-05
1.1305,5.92545775978449e-06,2.24451364003148e-05
1.131,5.9120312112795e-06,2.24394051695976e-05
1.1315,5.89870996113232e-06,2.24341953540849e-05
1.132,5.88549653986022e-06,2.24295146567662e-05
1.1325,5.87239345987154e-06,2.24253706438722e-05
1.133,5.85940321501957e-06,2.24217707425229e-05
1.1335,5.84652828015506e-06,2.24187222384306e-05
1.134,5.83377111067736e-06,2.24162322736577e-05
1.1345,5.82113414208431e-06,2.24143078444295e-05
1.135,5.80861978952096e-06,2.24129557990024e-05
1.1355,5.79623044732702e-06,2.24121828355881e-05
1.136,5.78396848858341e-06,2.24119955003336e-05
1.1365,5.77183626465765e-06,2.24124001853572e-05
1.137,5.75983610474843e-06,2.2413403126841e-05
1.1375,5.74797031542928e-06,2.24150104031793e-05
1.138,5.73624118019148e-06,2.24172279331833e-05
1.1385,5.72465095898627e-06,2.24200614743422e-05
1.139,5.71320188776645e-06,2.24235166211397e-05
1.1395,5.70189617802747e-06,2.24275988034264e-05
1.14,5.69073601634824e-06,2.24323132848479e-05
1.1405,5.67972356393182e-06,2.24376651613272e-05
1.141,5.66886095614604e-06,2.24436593596019e-05
1.1415,5.65815030206462e-06,2.24503006358157e-05
1.142,5.64759368400858e-06,2.24575935741626e-05
1.1425,5.63719315708853e-06,2.24655425855844e-05
1.143,5.62695074874784e-06,2.247415190652e-05
1.1435,5.61686845830717e-06,2.24834255977068e-05
1.144,5.60694825651057e-06,2.24933675430322e-05
1.1445,5.59719208507353e-06,2.25039814484365e-05
1.145,5.58760185623334e-06,2.25152708408646e-05
1.1455,5.57817945230222e-06,2.25272390672684e-05
1.146,5.56892672522355e-06,2.25398892936569e-05
1.1465,5.55984549613148e-06,2.25532245041963e-05
1.147,5.55093755491456e-06,2.25672475003575e-05
1.1475,5.54220465978348e-06,2.25819609001122e-05
1.148,5.53364853684348e-06,2.25973671371763e-05
1.1485,5.52527087967174e-06,2.26134684603005e-05
1.149,5.51707334890016e-06,2.26302669326084e-05
1.1495,5.50905757180395e-06,2.26477644309799e-05
1.15,5.50122514189634e-06,2.2665962645482e-05
1.1505,5.49357761853003e-06,2.26848630788456e-05
1.151,5.48611652650544e-06,2.27044670459877e-05
1.1515,5.47884335568648e-06,2.27247756735812e-05
1.152,5.47175956062396e-06,2.27457898996698e-05
1.1525,5.46486656018706e-06,2.27675104733317e-05
1.153,5.4581657372033e-06,2.2789937954389e-05
1.1535,5.45165843810706e-06,2.28130727131658e-05
1.154,5.44534597259729e-06,2.28369149302952e-05
1.1545,5.43922961330441e-06,2.28614645965739e-05
1.155,5.43331059546683e-06,2.28867215128678e-05
1.1555,5.42759011661729e-06,2.29126852900659e-05
1.156,5.42206933627929e-06,2.29393553490851e-05
1.1565,5.41674937567381e-06,2.2966730920926e-05
1.157,5.41163131743651e-06,2.29948110467783e-05
1.1575,5.40671620534564e-06,2.30235945781785e-05
1.158,5.40200504406082e-06,2.30530801772186e-05
1.1585,5.39749879887278e-06,2.3083266316807e-05
1.159,5.39319839546427e-06,2.31141512809812e-05
1.1595,5.38910471968218e-06,2.3145733165274e-05
1.16,5.38521861732106e-06,2.31780098771318e-05
1.1605,5.38154089391805e-06,2.32109791363879e-05
1.161,5.3780723145593e-06,2.3244638475789e-05
1.1615,5.37481360369803e-06,2.32789852415776e-05
1.162,5.37176544498419e-06,2.33140165941294e-05
1.1625,5.36892848110576e-06,2.33497295086474e-05
1.163,5.36630331364189e-06,2.3386120775913e-05
1.1635,5.36389050292757e-06,2.34231870030954e-05
1.164,5.3616905679302e-06,2.34609246146186e-05
1.1645,5.3597039861378e-06,2.34993298530885e-05
1.165,5.35793119345882e-06,2.35383987802792e-05
1.1655,5.35637258413376e-06,2.35781272781796e-05
1.166,5.35502851065816e-06,2.36185110501012e-05
1.1665,5.35389928371722e-06,2.36595456218462e-05
1.167,5.35298517213173e-06,2.37012263429382e-05
1.1675,5.35228640281545e-06,2.37435483879147e-05
1.168,5.3518031607436e-06,2.37865067576813e-05
1.1685,5.35153558893263e-06,2.38300962809299e-05
1.169,5.35148378843109e-06,2.38743116156186e-05
1.1695,5.35164781832154e-06,2.39191472505155e-05
1.17,5.35202769573354e-06,2.39645975068051e-05
1.1705,5.35262339586765e-06,2.40106565397581e-05
1.171,5.35343485203048e-06,2.40573183404648e-05
1.1715,5.35446195568065e-06,2.41045767376303e-05
1.172,5.35570455648574e-06,2.41524253994335e-05
1.1725,5.3571624623901e-06,2.42008578354482e-05
1.173,5.35883543969345e-06,2.42498673986261e-05
1.1735,5.36072321314027e-06,2.42994472873419e-05
1.174,5.36282546601979e-06,2.43495905474993e-05
1.1745,5.36514184027663e-06,2.44002900746982e-05
1.175,5.36767193663189e-06,2.44515386164616e-05
1.1755,5.37041531471458e-06,2.45033287745217e-05
1.176,5.37337149320338e-06,2.45556530071652e-05
1.1765,5.37653994997848e-06,2.46085036316356e-05
1.177,5.37992012228338e-06,2.46618728265928e-05
1.1775,5.38351140689655e-06,2.47157526346278e-05
1.178,5.3873131603127e-06,2.47701349648325e-05
1.1785,5.39132469893345e-06,2.48250115954226e-05
1.179,5.39554529926729e-06,2.48803741764125e-05
1.1795,5.39997419813852e-06,2.49362142323417e-05
1.18,5.40461059290507e-06,2.49925231650497e-05
1.1805,5.40945364168483e-06,2.50492922565e-05
1.181,5.41450246359048e-06,2.51065126716507e-05
1.1815,5.41975613897245e-06,2.51641754613702e-05
1.182,5.4252137096699e-06,2.52222715653978e-05
1.1825,5.43087417926934e-06,2.52807918153468e-05
1.183,5.43673651337093e-06,2.53397269377486e-05
1.1835,5.44279963986203e-06,2.53990675571375e-05
1.184,5.44906244919777e-06,2.54588041991738e-05
1.1845,5.45552379468866e-06,2.55189272938041e-05
1.185,5.46218249279469e-06,2.55794271784577e-05
1.1855,5.46903732342603e-06,2.56402941012769e-05
1.186,5.47608703024995e-06,2.57015182243807e-05
1.1865,5.48333032100379e-06,2.57630896271594e-05
1.187,5.49076586781389e-06,2.58249983095991e-05
1.1875,5.49839230752029e-06,2.58872341956339e-05
1.188,5.50620824200703e-06,2.59497871365243e-05
1.1885,5.51421223853786e-06,2.60126469142606e-05
1.189,5.52240283009734e-06,2.6075803244988e-05
1.1895,5.53077851573697e-06,2.61392457824529e-05
1.19,5.53933776092642e-06,2.62029641214678e-05
1.1905,5.54807899790959e-06,2.62669478013931e-05
1.191,5.55700062606546e-06,2.63311863096341e-05
1.1915,5.56610101227376e-06,2.63956690851506e-05
1.192,5.57537849128526e-06,2.64603855219779e-05
1.1925,5.58483136609688e-06,2.65253249727575e-05
1.193,5.59445790833156e-06,2.65904767522746e-05
1.1935,5.60425635862292e-06,2.66558301410019e-05
1.194,5.61422492700476e-06,2.67213743886479e-05
1.1945,5.62436179330552e-06,2.67870987177077e-05
1.195,5.63466510754748e-06,2.68529923270148e-05
1.1955,5.64513299035103e-06,2.69190443952935e-05
1.196,5.6557635333438e-06,2.69852440847093e-05
1.1965,5.6665547995747e-06,2.70515805444171e-05
1.197,5.677504823933e-06,2.71180429141041e-05
1.1975,5.68861161357229e-06,2.71846203275285e-05
1.198,5.69987314833938e-06,2.72513019160499e-05
1.1985,5.71128738120804e-06,2.73180768121519e-05
1.199,5.72285223871756e-06,2.73849341529545e-05
1.1995,5.73456562141608e-06,2.74518630837146e-05
1.2,5.74642540430867e-06,2.75188527613138e-05
1.2005,5.7584294373101e-06,2.75858923577315e-05
1.201,5.77057554570236e-06,2.76529710635021e-05
1.2015,5.78286153059679e-06,2.77200780911539e-05
1.202,5.79528516940106e-06,2.778720267863e-05
1.2025,5.8078442162908e-06,2.78543340926879e-05
1.203,5.82053640268599e-06,2.79214616322776e-05
1.2035,5.83335943773218e-06,2.79885746318964e-05
1.204,5.8463110087865e-06,2.80556624649202e-05
1.2045,5.85938878190855e-06,2.81227145469077e-05
1.205,5.87259040235633e-06,2.81897203388804e-05
1.2055,5.885913495087e-06,2.82566693505724e-05
1.206,5.89935566526272e-06,2.83235511436534e-05
1.2065,5.91291449876157e-06,2.83903553349198e-05
1.207,5.92658756269348e-06,2.84570715994559e-05
1.2075,5.94037240592131e-06,2.85236896737604e-05
1.208,5.95426655958694e-06,2.85901993588402e-05
1.2085,5.96826753764255e-06,2.86565905232671e-05
1.209,5.98237283738685e-06,2.87228531061982e-05
1.2095,5.99657994000633e-06,2.87889771203571e-05
1.21,6.01088631112153e-06,2.8854952654975e-05
1.2105,6.02528940133811e-06,2.89207698786907e-05
1.211,6.03978664680279e-06,2.89864190424073e-05
1.2115,6.05437546976397e-06,2.9051890482105e-05
1.212,6.06905327913699e-06,2.91171746216083e-05
1.2125,6.08381747107386e-06,2.91822619753059e-05
1.213,6.09866542953736e-06,2.92471431508232e-05
1.2135,6.1135945268794e-06,2.93118088516444e-05
1.214,6.12860212442343e-06,2.9376249879684e-05
1.2145,6.14368557305086e-06,2.94404571378051e-05
1.215,6.1588422137912e-06,2.95044216322849e-05
1.2155,6.17406937841587e-06,2.95681344752231e-05
1.216,6.18936439003538e-06,2.96315868868943e-05
1.2165,6.20472456369973e-06,2.96947701980419e-05
1.217,6.22014720700186e-06,2.97576758521118e-05
1.2175,6.23562962068387e-06,2.9820295407426e-05
1.218,6.25116909924586e-06,2.98826205392935e-05
1.2185,6.26676293155719e-06,2.99446430420586e-05
1.219,6.28240840146989e-06,3.00063548310846e-05
1.2195,6.29810278843414e-06,3.00677479446741e-05
1.22,6.31384336811544e-06,3.01288145459219e-05
1.2205,6.32962741301333e-06,3.01895469245039e-05
1.221,6.34545219308148e-06,3.02499374983979e-05
1.2215,6.36131497634885e-06,3.03099788155382e-05
1.222,6.37721302954168e-06,3.03696635554025e-05
1.2225,6.39314361870618e-06,3.04289845305305e-05
1.223,6.40910400983149e-06,3.04879346879739e-05
1.2235,6.42509146947276e-06,3.05465071106771e-05
1.224,6.44110326537401e-06,3.06046950187873e-05
1.2245,6.45713666709048e-06,3.06624917708944e-05
1.225,6.47318894661018e-06,3.07198908651988e-05
1.2255,6.48925737897424e-06,3.07768859406064e-05
1.226,6.5053392428959e-06,3.08334707777515e-05
1.2265,6.5214318213776e-06,3.08896392999443e-05
1.227,6.53753240232606e-06,3.09453855740452e-05
1.2275,6.55363827916485e-06,3.10007038112633e-05
1.228,6.56974675144402e-06,3.10555883678799e-05
1.2285,6.58585512544666e-06,3.11100337458947e-05
1.229,6.60196071479171e-06,3.11640345935976e-05
1.2295,6.6180608410328e-06,3.12175857060621e-05
1.23,6.63415283425261e-06,3.1270682025563e-05
1.2305,6.65023403365251e-06,3.13233186419172e-05
1.231,6.66630178813699e-06,3.13754907927471e-05
1.2315,6.68235345689251e-06,3.1427193863668e-05
1.232,6.69838640996065e-06,3.14784233883986e-05
1.2325,6.71439802880503e-06,3.15291750487949e-05
1.233,6.73038570687186e-06,3.15794446748077e-05
1.2335,6.74634685014379e-06,3.1629228244365e-05
1.234,6.76227887768673e-06,3.16785218831778e-05
1.2345,6.77817922218952e-06,3.1727321864471e-05
1.235,6.79404533049615e-06,3.17756246086399e-05
1.2355,6.80987466413039e-06,3.18234266828314e-05
1.236,6.82566469981278e-06,3.18707248004529e-05
1.2365,6.8414129299699e-06,3.19175158206069e-05
1.237,6.85711686323592e-06,3.19637967474541e-05
1.2375,6.87277402494645e-06,3.2009564729504e-05
1.238,6.88838195762472e-06,3.20548170588344e-05
1.2385,6.90393822146018e-06,3.20995511702399e-05
1.239,6.91944039477953e-06,3.21437646403104e-05
1.2395,6.93488607451014e-06,3.21874551864392e-05
1.24,6.9502728766361e-06,3.22306206657624e-05
1.2405,6.96559843664665e-06,3.22732590740299e-05
1.241,6.98086040997727e-06,3.23153685444096e-05
1.2415,6.99605647244325e-06,3.23569473462245e-05
1.242,7.01118432066588e-06,3.23979938836268e-05
1.2425,7.02624167249128e-06,3.24385066942081e-05
1.243,7.04122626740175e-06,3.24784844475486e-05
