Time_s,BCL_Envelope_Smoothed,BCC_Envelope_Smoothed
20,-1.20310301626794e-05,2.49886286451229e-05
20.0005,-1.16050372471135e-05,2.55600434746326e-05
20.001,-1.11822276890715e-05,2.61281376946763e-05
20.0015,-1.07625911917193e-05,2.66929188097087e-05
20.002,-1.03461174582226e-05,2.72543943241838e-05
20.0025,-9.93279619174731e-06,2.78125717425561e-05
20.003,-9.52261709545903e-06,2.83674585692797e-05
20.0035,-9.11556987252363e-06,2.8919062308809e-05
20.004,-8.71164422610686e-06,2.94673904655983e-05
20.0045,-8.3108298593745e-06,3.00124505441019e-05
20.005,-7.91311647549234e-06,3.0554250048774e-05
20.0055,-7.51849377762613e-06,3.10927964840689e-05
20.006,-7.12695146894166e-06,3.16280973544409e-05
20.0065,-6.7384792526047e-06,3.21601601643444e-05
20.007,-6.35306683178104e-06,3.26889924182335e-05
20.0075,-5.97070390963643e-06,3.32146016205626e-05
20.008,-5.59138018933666e-06,3.3736995275786e-05
20.0085,-5.21508537404751e-06,3.4256180888358e-05
20.009,-4.84180916693474e-06,3.47721659627328e-05
20.0095,-4.47154127116413e-06,3.52849580033647e-05
20.01,-4.10427138990146e-06,3.57945645147081e-05
20.0105,-3.73998922631251e-06,3.63009930012172e-05
20.011,-3.37868448356304e-06,3.68042509673462e-05
20.0115,-3.02034686481884e-06,3.73043459175496e-05
20.012,-2.66496607324567e-06,3.78012853562815e-05
20.0125,-2.31253181200932e-06,3.82950767879964e-05
20.013,-1.96303378427555e-06,3.87857277171483e-05
20.0135,-1.61646169321015e-06,3.92732456481918e-05
20.014,-1.27280524197889e-06,3.97576380855809e-05
20.0145,-9.32054133747535e-07,4.02389125337701e-05
20.015,-5.9419807168187e-07,4.07170764972136e-05
20.0155,-2.59226758947673e-07,4.11921374803657e-05
20.016,7.28701012892885e-08,4.16641029876806e-05
20.0165,4.02102805863238e-07,4.21329805236128e-05
20.017,7.284816516084e-07,4.25987775926164e-05
20.0175,1.05201693535899e-06,4.30615016991457e-05
20.018,1.37271895394925e-06,4.35211603476552e-05
20.0185,1.6905980042134e-06,4.39777610425989e-05
20.019,2.00566438298565e-06,4.44313112884312e-05
20.0195,2.31792838710025e-06,4.48818185896065e-05
20.02,2.6274003133914e-06,4.53292904505789e-05
20.0205,2.93409045869334e-06,4.57737343758029e-05
20.021,3.23800911984029e-06,4.62151578697326e-05
20.0215,3.53916659366648e-06,4.66535684368223e-05
20.022,3.83757317700612e-06,4.70889735815264e-05
20.0225,4.13323916669346e-06,4.75213808082991e-05
20.023,4.4261748595627e-06,4.79507976215948e-05
20.0235,4.71639055244808e-06,4.83772315258677e-05
20.024,5.00389654218382e-06,4.8800690025572e-05
20.0245,5.28870312560416e-06,4.92211806251622e-05
20.025,5.57082059954329e-06,4.96387108290925e-05
20.0255,5.85025926083546e-06,5.0053288141817e-05
20.026,6.1270294063149e-06,5.04649200677903e-05
20.0265,6.40114133281582e-06,5.08736141114666e-05
20.027,6.67260533717245e-06,5.12793777773e-05
20.0275,6.94143171621901e-06,5.16822185697449e-05
20.028,7.20763076678974e-06,5.20821439932557e-05
20.0285,7.47121278571886e-06,5.24791615522866e-05
20.029,7.73218806984059e-06,5.28732787512918e-05
20.0295,7.99056691598915e-06,5.32645030947257e-05
20.03,8.24635962099876e-06,5.36528420870425e-05
20.0305,8.49957648170366e-06,5.40383032326967e-05
20.031,8.75022779493808e-06,5.44208940361423e-05
20.0315,8.99832385753622e-06,5.48006220018338e-05
20.032,9.24387496633234e-06,5.51774946342255e-05
20.0325,9.48689141816064e-06,5.55515194377715e-05
20.033,9.72738350985535e-06,5.59227039169262e-05
20.0335,9.96536153825069e-06,5.62910555761438e-05
20.034,1.02008358001809e-05,5.66565819198788e-05
20.0345,1.04338165924802e-05,5.70192904525853e-05
20.035,1.06643142119828e-05,5.73791886787176e-05
20.0355,1.08923389555229e-05,5.77362841027301e-05
20.036,1.11179011199348e-05,5.8090584229077e-05
20.0365,1.13410110020527e-05,5.84420965622127e-05
20.037,1.15616788987108e-05,5.87908286065913e-05
20.0375,1.17799151067433e-05,5.91367878666671e-05
20.038,1.19957299229845e-05,5.94799818468946e-05
20.0385,1.22091336442685e-05,5.9820418051728e-05
20.039,1.24201365674297e-05,6.01581039856215e-05
20.0395,1.26287489893022e-05,6.04930471530294e-05
20.04,1.28349812067202e-05,6.08252550584061e-05
20.0405,1.30388435165181e-05,6.11547352062057e-05
20.041,1.324034621553e-05,6.14814951008827e-05
20.0415,1.343949960059e-05,6.18055422468913e-05
20.042,1.36363139685326e-05,6.21268841486858e-05
20.0425,1.38307996161918e-05,6.24455283107205e-05
20.043,1.4022966840402e-05,6.27614822374495e-05
20.0435,1.42128259379973e-05,6.30747534333274e-05
20.044,1.44003872058119e-05,6.33853494028082e-05
20.0445,1.45856609406801e-05,6.36932776503464e-05
20.045,1.47686574394362e-05,6.39985456803962e-05
20.0455,1.49493869989142e-05,6.43011609974119e-05
20.046,1.51278599159485e-05,6.46011311058478e-05
20.0465,1.53040864873734e-05,6.48984635101582e-05
20.047,1.54780770100229e-05,6.51931657147973e-05
20.0475,1.56498417807313e-05,6.54852452242195e-05
20.048,1.5819391096333e-05,6.57747095428791e-05
20.0485,1.59867352536619e-05,6.60615661752303e-05
20.049,1.61518845495525e-05,6.63458226257273e-05
20.0495,1.6314849280839e-05,6.66274863988246e-05
20.05,1.64756397443555e-05,6.69065649989765e-05
20.0505,1.66342662369363e-05,6.71830659306371e-05
20.051,1.67907390554155e-05,6.74569966982607e-05
20.0515,1.69450684966276e-05,6.77283648063017e-05
20.052,1.70972648574065e-05,6.79971777592144e-05
20.0525,1.72473384345867e-05,6.8263443061453e-05
20.053,1.73952995250023e-05,6.85271682174718e-05
20.0535,1.75411584254875e-05,6.87883607317252e-05
20.054,1.76849254328765e-05,6.90470281086674e-05
20.0545,1.78266108440037e-05,6.93031778527526e-05
20.055,1.79662249557031e-05,6.95568174684352e-05
20.0555,1.81037780648091e-05,6.98079544601696e-05
20.056,1.82392804681559e-05,7.00565963324098e-05
20.0565,1.83727424625776e-05,7.03027505896103e-05
20.057,1.85041743449085e-05,7.05464247362253e-05
20.0575,1.86335864119829e-05,7.07876262767092e-05
20.058,1.87609889606349e-05,7.10263627155161e-05
20.0585,1.88863922876988e-05,7.12626415571005e-05
20.059,1.90098066900088e-05,7.14964703059167e-05
20.0595,1.91312424643991e-05,7.17278564664186e-05
20.06,1.9250709907704e-05,7.19568075430609e-05
20.0605,1.93682193167577e-05,7.21833310402977e-05
20.061,1.94837809883944e-05,7.24074344625834e-05
20.0615,1.95974052194483e-05,7.26291253143722e-05
20.062,1.97091023067537e-05,7.28484111001185e-05
20.0625,1.98188825471448e-05,7.30652993242765e-05
20.063,1.99267562374558e-05,7.32797974913003e-05
20.0635,2.00327336745209e-05,7.34919131056447e-05
20.064,2.01368251551743e-05,7.37016536717634e-05
20.0645,2.02390409762504e-05,7.3909026694111e-05
20.065,2.03393914345832e-05,7.41140396771418e-05
20.0655,2.04378868270071e-05,7.431670012531e-05
20.066,2.05345374503562e-05,7.45170155430701e-05
20.0665,2.06293536014648e-05,7.4714993434876e-05
20.067,2.07223455771672e-05,7.49106413051823e-05
20.0675,2.08135236742974e-05,7.51039666584432e-05
20.068,2.09028981896898e-05,7.52949769991129e-05
20.0685,2.09904794201787e-05,7.54836798316458e-05
20.069,2.1076277662598e-05,7.56700826604961e-05
20.0695,2.11603032137823e-05,7.58541929901182e-05
20.07,2.12425663705656e-05,7.60360183249664e-05
20.0705,2.13230774297821e-05,7.62155661694949e-05
20.071,2.14018466882662e-05,7.63928440281579e-05
20.0715,2.1478884442852e-05,7.65678594054099e-05
20.072,2.15542009903738e-05,7.67406198057051e-05
20.0725,2.16278066276657e-05,7.69111327334977e-05
20.073,2.16997116515621e-05,7.7079405693242e-05
20.0735,2.17699263588971e-05,7.72454461893925e-05
20.074,2.18384610465049e-05,7.74092617264032e-05
20.0745,2.19053260112199e-05,7.75708598087287e-05
20.075,2.19705315498761e-05,7.7730247940823e-05
20.0755,2.20340879593078e-05,7.78874336271406e-05
20.076,2.20960055363494e-05,7.80424243721356e-05
20.0765,2.21562945778348e-05,7.81952276802624e-05
20.077,2.22149653805985e-05,7.83458510559751e-05
20.0775,2.22720282414747e-05,7.84943020037285e-05
20.078,2.23274934572974e-05,7.86405880279763e-05
20.0785,2.23813713249011e-05,7.87847166331731e-05
20.079,2.24336721411199e-05,7.89266953237732e-05
20.0795,2.2484406202788e-05,7.90665316042307e-05
20.08,2.25335838067397e-05,7.92042329790001e-05
20.0805,2.25812152498091e-05,7.93398069525354e-05
20.081,2.26273108288306e-05,7.94732610292912e-05
20.0815,2.26718808406382e-05,7.96046027137218e-05
20.082,2.27149355820664e-05,7.97338395102812e-05
20.0825,2.27564853499492e-05,7.98609789234238e-05
20.083,2.27965404411209e-05,7.9986028457604e-05
20.0835,2.28351111524157e-05,8.01089956172761e-05
20.084,2.2872207780668e-05,8.02298879068942e-05
20.0845,2.29078406227117e-05,8.03487128309126e-05
20.085,2.29420199753813e-05,8.0465477893786e-05
20.0855,2.29747561355109e-05,8.05801905999681e-05
20.086,2.30060593999348e-05,8.06928584539135e-05
20.0865,2.30359400654872e-05,8.08034889600766e-05
20.087,2.30644084290022e-05,8.09120896229114e-05
20.0875,2.30914747873142e-05,8.10186679468723e-05
20.088,2.31171494372574e-05,8.11232314364136e-05
20.0885,2.31414426756659e-05,8.12257875959896e-05
20.089,2.3164364799374e-05,8.13263439300547e-05
20.0895,2.3185926105216e-05,8.14249079430631e-05
20.09,2.3206136890026e-05,8.15214871394689e-05
20.0905,2.32250074506383e-05,8.16160890237267e-05
20.091,2.32425480838871e-05,8.17087211002906e-05
20.0915,2.32587690866066e-05,8.17993908736149e-05
20.092,2.32736807556311e-05,8.1888105848154e-05
20.0925,2.32872933877948e-05,8.1974873528362e-05
20.093,2.32996172799318e-05,8.20597014186934e-05
20.0935,2.33106627288765e-05,8.21425970236023e-05
20.094,2.3320440031463e-05,8.22235678475432e-05
20.0945,2.33289594845257e-05,8.23026213949702e-05
20.095,2.33362313848986e-05,8.23797651703375e-05
20.0955,2.33422660294161e-05,8.24550066780997e-05
20.096,2.33470737149123e-05,8.25283534227109e-05
20.0965,2.33506647382215e-05,8.25998129086255e-05
20.097,2.33530493961778e-05,8.26693926402974e-05
20.0975,2.33542379856157e-05,8.27371001221816e-05
20.098,2.33542408033691e-05,8.28029428587318e-05
20.0985,2.33530681462725e-05,8.28669283544024e-05
20.099,2.335073031116e-05,8.29290641136478e-05
20.0995,2.33472375948658e-05,8.29893576409223e-05
20.1,2.33426002942241e-05,8.30478164406801e-05
20.1005,2.33368287060692e-05,8.31044480173756e-05
20.101,2.33299331272354e-05,8.3159259875463e-05
20.1015,2.33219238545567e-05,8.32122595193965e-05
20.102,2.33128111848675e-05,8.32634544536305e-05
20.1025,2.3302605415002e-05,8.33128521826192e-05
20.103,2.32913168417944e-05,8.33604602108171e-05
20.1035,2.32789557620789e-05,8.34062860426784e-05
20.104,2.32655324726898e-05,8.34503371826572e-05
20.1045,2.32510572704612e-05,8.3492621135208e-05
20.105,2.32355404522274e-05,8.35331454047851e-05
20.1055,2.32189923148228e-05,8.35719174958425e-05
20.106,2.32014231550813e-05,8.36089449128349e-05
20.1065,2.31828432698373e-05,8.36442351602162e-05
20.107,2.3163262955925e-05,8.36777957424411e-05
20.1075,2.31426925101786e-05,8.37096341639635e-05
20.108,2.31211422294324e-05,8.3739757929238e-05
20.1085,2.30986224105206e-05,8.37681745427184e-05
20.109,2.30751433502774e-05,8.37948915088597e-05
20.1095,2.3050715345537e-05,8.38199163321156e-05
20.11,2.30253486931336e-05,8.38432565169406e-05
20.1105,2.29990536899016e-05,8.38649195677892e-05
20.111,2.2971840632675e-05,8.38849129891152e-05
20.1115,2.29437198182882e-05,8.39032442853733e-05
20.112,2.29147015435753e-05,8.39199209610177e-05
20.1125,2.28847961053706e-05,8.39349505205026e-05
20.113,2.28540138005083e-05,8.39483404682823e-05
20.1135,2.28223649258226e-05,8.39600983088113e-05
20.114,2.27898597781478e-05,8.39702315465434e-05
20.1145,2.2756508654318e-05,8.39787476859335e-05
20.115,2.27223218511676e-05,8.39856542314354e-05
20.1155,2.26873096655307e-05,8.39909586875037e-05
20.116,2.26514823942415e-05,8.39946685585924e-05
20.1165,2.26148503341343e-05,8.39967913491562e-05
20.117,2.25774237820433e-05,8.39973345636488e-05
20.1175,2.25392130348027e-05,8.39963057065251e-05
20.118,2.25002283892468e-05,8.3993712282239e-05
20.1185,2.24604801422098e-05,8.39895617952449e-05
20.119,2.24199785905258e-05,8.39838617499972e-05
20.1195,2.23787340310293e-05,8.397661965095e-05
20.12,2.23367567605542e-05,8.39678430025578e-05
20.1205,2.22940570759349e-05,8.39575393092746e-05
20.121,2.22506452740056e-05,8.39457160755548e-05
20.1215,2.22065316516006e-05,8.39323808058528e-05
20.122,2.2161726505554e-05,8.39175410046228e-05
20.1225,2.21162401327001e-05,8.39012041763192e-05
20.123,2.20700828298731e-05,8.38833778253962e-05
20.1235,2.20232648939072e-05,8.3864069456308e-05
20.124,2.19757966216367e-05,8.38432865735091e-05
20.1245,2.19276883098957e-05,8.38210366814536e-05
20.125,2.18789502555185e-05,8.37973272845958e-05
20.1255,2.18382900578692e-05,8.37758311172533e-05
20.126,2.17970019468131e-05,8.37524152881805e-05
20.1265,2.17551003707759e-05,8.37270916529445e-05
20.127,2.17125997383118e-05,8.36998722302881e-05
20.1275,2.16695144158425e-05,8.3670769200066e-05
20.128,2.16258587254216e-05,8.36397949011627e-05
20.1285,2.15816469425253e-05,8.36069618293909e-05
20.129,2.15368932938694e-05,8.35722826353737e-05
20.1295,2.14916119552527e-05,8.35357701224076e-05
20.13,2.14458170494285e-05,8.34974372443091e-05
20.1305,2.1399522644003e-05,8.34572971032469e-05
20.131,2.13527427493619e-05,8.34153629475582e-05
20.1315,2.13054913166264e-05,8.33716481695487e-05
20.132,2.12577822356353e-05,8.33261663032826e-05
20.1325,2.12096293329595e-05,8.3278931022355e-05
20.133,2.11610463699431e-05,8.32299561376555e-05
20.1335,2.11120470407759e-05,8.31792555951167e-05
20.134,2.10626449705946e-05,8.31268434734542e-05
20.1345,2.10128537136152e-05,8.30727339818941e-05
20.135,2.09626867512953e-05,8.30169414578909e-05
20.1355,2.09121574905271e-05,8.29594803648356e-05
20.136,2.08612792618617e-05,8.29003652897551e-05
20.1365,2.08100653177641e-05,8.28396109410035e-05
20.137,2.07585288308998e-05,8.27772321459443e-05
20.1375,2.0706682892453e-05,8.27132438486266e-05
20.138,2.06545405104761e-05,8.2647661107453e-05
20.1385,2.06021146082717e-05,8.25804990928417e-05
20.139,2.05494180228062e-05,8.25117730848835e-05
20.1395,2.04964635031559e-05,8.24414984709915e-05
20.14,2.04432637089846e-05,8.23696907435467e-05
20.1405,2.03898312090553e-05,8.22963654975398e-05
20.141,2.03361784797726e-05,8.22215384282068e-05
20.1415,2.0282317903759e-05,8.2145225328663e-05
20.142,2.02282617684636e-05,8.20674420875325e-05
20.1425,2.01740222648033e-05,8.19882046865747e-05
20.143,2.01196114858373e-05,8.19075291983093e-05
20.1435,2.00650414254748e-05,8.18254317836382e-05
20.144,2.00103239772146e-05,8.17419286894662e-05
20.1445,1.99554709329192e-05,8.16570362463208e-05
20.145,1.99004939816208e-05,8.15707708659703e-05
20.1455,1.98454047083613e-05,8.14831490390429e-05
20.146,1.97902145930642e-05,8.13941873326433e-05
20.1465,1.97349350094413e-05,8.13039023879725e-05
20.147,1.96795772239306e-05,8.12123109179464e-05
20.1475,1.96241523946687e-05,8.11194297048155e-05
20.148,1.95686715704957e-05,8.10252755977876e-05
20.1485,1.95131456899928e-05,8.09298655106503e-05
20.149,1.94575855805534e-05,8.08332164193969e-05
20.1495,1.94020019574864e-05,8.07353453598554e-05
20.15,1.93464054231531e-05,8.06362694253182e-05
20.1505,1.92908064661359e-05,8.05360057641777e-05
20.151,1.92352154604404e-05,8.04345715775639e-05
20.1515,1.91796426647297e-05,8.03319841169861e-05
20.152,1.91240982215907e-05,8.0228260681979e-05
20.1525,1.90685921568334e-05,8.0123418617754e-05
20.153,1.9013134378822e-05,8.00174753128544e-05
20.1535,1.89577346778381e-05,7.9910448196816e-05
20.154,1.89024027254753e-05,7.98023547378338e-05
20.1545,1.88471480740664e-05,7.96932124404336e-05
20.155,1.87919801561415e-05,7.95830388431503e-05
20.1555,1.87369082839178e-05,7.94718515162111e-05
20.156,1.868194164882e-05,7.93596680592272e-05
20.1565,1.8627089321033e-05,7.92465060988902e-05
20.157,1.85723602490839e-05,7.91323832866758e-05
20.1575,1.85177632594559e-05,7.90173172965565e-05
20.158,1.84633070562312e-05,7.89013258227178e-05
20.1585,1.84090002207658e-05,7.87844265772846e-05
20.159,1.83548512113931e-05,7.8666637288056e-05
20.1595,1.8300868363157e-05,7.85479756962434e-05
20.16,1.82470598875757e-05,7.84284595542227e-05
20.1605,1.81934338724332e-05,7.83081066232878e-05
20.161,1.81399982816011e-05,7.81869346714184e-05
20.1615,1.80867609548885e-05,7.8064961471052e-05
20.162,1.80337296079204e-05,7.79422047968653e-05
20.1625,1.7980911832044e-05,7.78186824235652e-05
20.163,1.79283150942636e-05,7.76944121236862e-05
20.1635,1.78759467372028e-05,7.75694116653987e-05
20.164,1.78238139790938e-05,7.74436988103242e-05
20.1645,1.77719239137939e-05,7.73172913113598e-05
20.165,1.77202835108292e-05,7.71902069105116e-05
20.1655,1.76688996154639e-05,7.70624633367373e-05
20.166,1.76177789487968e-05,7.69340783037959e-05
20.1665,1.75669281078828e-05,7.68050695081085e-05
20.167,1.75163535658806e-05,7.66754546266266e-05
20.1675,1.7466061672225e-05,7.65452513147092e-05
20.168,1.74160586528245e-05,7.64144772040093e-05
20.1685,1.73663506102837e-05,7.62831499003693e-05
20.169,1.73169435241498e-05,7.61512869817246e-05
20.1695,1.72678432511824e-05,7.60189059960158e-05
20.17,1.72190555256484e-05,7.58860244591117e-05
20.1705,1.71705859596385e-05,7.57526598527373e-05
20.171,1.71224400434083e-05,7.56188296224144e-05
20.1715,1.70746231457407e-05,7.54845511754077e-05
20.172,1.70271405143313e-05,7.53498418786815e-05
20.1725,1.69799972761958e-05,7.52147190568634e-05
20.173,1.69331984380989e-05,7.50791999902174e-05
20.1735,1.68867488870046e-05,7.49433019126252e-05
20.174,1.68406533905472e-05,7.48070420095752e-05
20.1745,1.67949165975235e-05,7.46704374161609e-05
20.175,1.67495430384048e-05,7.45335052150865e-05
20.1755,1.67045371258691e-05,7.43962624346818e-05
20.176,1.66599031553532e-05,7.42587260469245e-05
20.1765,1.66156453056237e-05,7.41209129654711e-05
20.177,1.65717676393669e-05,7.39828400436968e-05
20.1775,1.65282741037978e-05,7.38445240727425e-05
20.178,1.64851685312875e-05,7.37059817795711e-05
20.1785,1.64424546400075e-05,7.35672298250317e-05
20.179,1.6400136034593e-05,7.34282848019341e-05
20.1795,1.63582162068221e-05,7.32891632331278e-05
20.18,1.63166985363137e-05,7.31498815695954e-05
20.1805,1.62755862912399e-05,7.30104561885493e-05
20.181,1.62348826290565e-05,7.28709033915418e-05
20.1815,1.61945905972486e-05,7.27312394025812e-05
20.182,1.61547131340914e-05,7.25914803662594e-05
20.1825,1.61152530694276e-05,7.24516423458877e-05
20.183,1.60762131254585e-05,7.23117413216418e-05
20.1835,1.603759591755e-05,7.21717931887189e-05
20.184,1.59994039550539e-05,7.20318137555029e-05
20.1845,1.59616396421415e-05,7.18918187417403e-05
20.185,1.59243052786522e-05,7.17518237767282e-05
20.1855,1.58874030609547e-05,7.16118443975108e-05
20.186,1.58509350828219e-05,7.147189604709e-05
20.1865,1.58149033363177e-05,7.13319940726455e-05
20.187,1.57793097126962e-05,7.11921537237679e-05
20.1875,1.57441560033139e-05,7.10523901507036e-05
20.188,1.57094439005526e-05,7.09127184026137e-05
20.1885,1.56751749987538e-05,7.07731534258435e-05
20.189,1.56413507951645e-05,7.06337100622094e-05
20.1895,1.56079726908936e-05,7.04944030472958e-05
20.19,1.55750419918789e-05,7.03552470087695e-05
20.1905,1.55425599098632e-05,7.02162564647078e-05
20.191,1.55105275633814e-05,7.00774458219418e-05
20.1915,1.54789459787562e-05,6.99388293744166e-05
20.192,1.54478160911031e-05,6.98004213015669e-05
20.1925,1.54171387453441e-05,6.96622356667108e-05
20.193,1.53869146972297e-05,6.95242864154593e-05
20.1935,1.53571446143689e-05,6.93865873741458e-05
20.194,1.53278290772674e-05,6.92491522482727e-05
20.1945,1.52989685803723e-05,6.91119946209778e-05
20.195,1.52705635331247e-05,6.89751279515193e-05
20.1955,1.52426142610187e-05,6.88385655737829e-05
20.196,1.52151210066665e-05,6.87023206948072e-05
20.1965,1.51880839308697e-05,6.85664063933322e-05
20.197,1.51615031136968e-05,6.84308356183685e-05
20.1975,1.5135378555565e-05,6.82956211877893e-05
20.198,1.51097101783284e-05,6.81607757869457e-05
20.1985,1.50844978263693e-05,6.80263119673039e-05
20.199,1.50597412676953e-05,6.78922421451081e-05
20.1995,1.50354401950396e-05,6.77585786000668e-05
20.2,1.5011594226965e-05,6.76253334740652e-05
20.2005,1.49882029089715e-05,6.74925187699017e-05
20.201,1.49652657146069e-05,6.73601463500523e-05
20.2015,1.49427820465797e-05,6.72282279354599e-05
20.202,1.49207512378746e-05,6.70967751043526e-05
20.2025,1.48991725528699e-05,6.69657992910877e-05
20.203,1.48780451884569e-05,6.68353117850264e-05
20.2035,1.48573682751597e-05,6.6705323729434e-05
20.204,1.48371408782569e-05,6.65758461204125e-05
20.2045,1.48173619989038e-05,6.644688980586e-05
20.205,1.47980305752544e-05,6.63184654844627e-05
20.2055,1.47791454835836e-05,6.61905837047147e-05
20.206,1.47607055394097e-05,6.60632548639716e-05
20.2065,1.47427094986153e-05,6.59364892075319e-05
20.207,1.47251560585676e-05,6.58102968277536e-05
20.2075,1.47080438592378e-05,6.56846876632006e-05
20.208,1.4691371484318e-05,6.55596714978211e-05
20.2085,1.4675137462337e-05,6.54352579601605e-05
20.209,1.46593402677734e-05,6.53114565226061e-05
20.2095,1.46439783221659e-05,6.51882765006635e-05
20.21,1.46290499952217e-05,6.50657270522702e-05
20.2105,1.46145536059203e-05,6.49438171771387e-05
20.211,1.46004874236151e-05,6.48225557161363e-05
20.2115,1.45868496691306e-05,6.47019513506979e-05
20.212,1.45736385158552e-05,6.4582012602272e-05
20.2125,1.45608520908305e-05,6.44627478318044e-05
20.213,1.45484884758351e-05,6.4344165239252e-05
20.2135,1.4536545708464e-05,6.42262728631343e-05
20.214,1.45250217832023e-05,6.41090785801195e-05
20.2145,1.45139146524938e-05,6.39925901046437e-05
20.215,1.45032222278035e-05,6.38768149885669e-05
20.2155,1.44929423806742e-05,6.3761760620863e-05
20.216,1.44830729437765e-05,6.36474342273451e-05
20.2165,1.44736117119526e-05,6.3533842870426e-05
20.217,1.44645564432529e-05,6.34209934489136e-05
20.2175,1.44559048599657e-05,6.33088926978415e-05
20.218,1.44476546496391e-05,6.31975471883343e-05
20.2185,1.4439803466096e-05,6.30869633275086e-05
20.219,1.44323489304406e-05,6.29771473584082e-05
20.2195,1.44252886320573e-05,6.28681053599744e-05
20.22,1.44186201296005e-05,6.2759843247051e-05
20.2205,1.44123409519773e-05,6.2652366770423e-05
20.221,1.44064485993196e-05,6.25456815168923e-05
20.2215,1.44009405439488e-05,6.24397929093841e-05
20.222,1.43958142313306e-05,6.23347062070905e-05
20.2225,1.43910670810206e-05,6.22304265056459e-05
20.223,1.43866964875998e-05,6.21269587373377e-05
20.2235,1.43826998216019e-05,6.20243076713493e-05
20.224,1.43790744304287e-05,6.19224779140371e-05
20.2245,1.43758176392565e-05,6.18214739092404e-05
20.225,1.43729267519327e-05,6.1721299938624e-05
20.2255,1.43703990518606e-05,6.16219601220535e-05
20.226,1.4368231802875e-05,6.15234584180025e-05
20.2265,1.43664222501059e-05,6.14257986239926e-05
20.227,1.43649676208325e-05,6.13289843770643e-05
20.2275,1.43638651253253e-05,6.12330191542797e-05
20.228,1.43631119576772e-05,6.11379062732559e-05
20.2285,1.43627052966238e-05,6.10436488927299e-05
20.229,1.43626423063522e-05,6.0950250013153e-05
20.2295,1.4362920137298e-05,6.08577124773167e-05
20.23,1.43635359269306e-05,6.07660389710063e-05
20.2305,1.43644868005278e-05,6.06752320236857e-05
20.231,1.43657698719378e-05,6.05852940092106e-05
20.2315,1.4367382244329e-05,6.04962271465707e-05
20.232,1.43693210109292e-05,6.04080335006591e-05
20.2325,1.43715832557515e-05,6.03207149830708e-05
20.233,1.43741660543092e-05,6.02342733529287e-05
20.2335,1.43770664743174e-05,6.0148710217736e-05
20.234,1.43802815763838e-05,6.0064027034256e-05
20.2345,1.43838084146864e-05,5.99802251094179e-05
20.235,1.4387644037639e-05,5.98973056012488e-05
20.2355,1.43917854885451e-05,5.98152695198313e-05
20.236,1.43962298062384e-05,5.97341177282865e-05
20.2365,1.44009740257125e-05,5.96538509437804e-05
20.237,1.44060151787364e-05,5.95744697385571e-05
20.2375,1.44113502944597e-05,5.9495974540994e-05
20.238,1.44169764000034e-05,5.94183656366805e-05
20.2385,1.44228905210401e-05,5.93416431695217e-05
20.239,1.44290896823609e-05,5.92658071428619e-05
20.2395,1.44355709084298e-05,5.91908574206334e-05
20.24,1.44423312239268e-05,5.91167937285248e-05
20.2405,1.44493676542774e-05,5.90436156551715e-05
20.241,1.44566772261709e-05,5.89713226533681e-05
20.2415,1.44642569680655e-05,5.88999140412999e-05
20.242,1.44721039106822e-05,5.88293890037951e-05
20.2425,1.44802150874854e-05,5.87597465935983e-05
20.243,1.44885875351523e-05,5.86909857326601e-05
20.2435,1.44972182940298e-05,5.86231052134494e-05
20.244,1.45061044085788e-05,5.8556103700282e-05
20.2445,1.45152429278075e-05,5.84899797306679e-05
20.245,1.45246309056922e-05,5.84247317166775e-05
20.2455,1.45342654015862e-05,5.83603579463235e-05
20.246,1.45441434806165e-05,5.82968565849615e-05
20.2465,1.455426221407e-05,5.82342256767077e-05
20.247,1.4564618679766e-05,5.81724631458708e-05
20.2475,1.45752099624192e-05,5.81115667984032e-05
20.248,1.45860331539897e-05,5.80515343233651e-05
20.2485,1.45970853540218e-05,5.79923632944061e-05
20.249,1.46083636699717e-05,5.79340511712618e-05
20.2495,1.4619865217524e-05,5.78765953012634e-05
20.25,1.46315871208962e-05,5.78199929208651e-05
20.2505,1.46435265131329e-05,5.77642411571833e-05
20.251,1.46556805363887e-05,5.77093370295506e-05
20.2515,1.46680463421999e-05,5.76552774510847e-05
20.252,1.46806210917456e-05,5.76020592302694e-05
20.2525,1.46934019560984e-05,5.75496790725502e-05
20.253,1.47063861164634e-05,5.74981335819426e-05
20.2535,1.47195707644082e-05,5.7447419262653e-05
20.254,1.47329531020811e-05,5.73975325207136e-05
20.2545,1.47465303424202e-05,5.73484696656282e-05
20.255,1.47602997093513e-05,5.73002269120331e-05
20.2555,1.47742584379766e-05,5.72528003813664e-05
20.256,1.47884037747536e-05,5.72061861035536e-05
20.2565,1.4802732977663e-05,5.71603800187024e-05
20.257,1.48172433163689e-05,5.71153779788104e-05
20.2575,1.48319320723679e-05,5.70711757494843e-05
20.258,1.484679653913e-05,5.70277690116712e-05
20.2585,1.48618340222294e-05,5.69851533634009e-05
20.259,1.48770418394676e-05,5.69433243215395e-05
20.2595,1.48924173209862e-05,5.69022773235551e-05
20.26,1.49079578093721e-05,5.68620077292942e-05
20.2605,1.49236606597537e-05,5.68225108227691e-05
20.261,1.49395232398892e-05,5.67837818139563e-05
20.2615,1.49555429302458e-05,5.67458158406068e-05
20.262,1.49717171240724e-05,5.6708607970066e-05
20.2625,1.4988043227463e-05,5.66721532011053e-05
20.263,1.50045186594136e-05,5.66364464657636e-05
20.2635,1.50211408518708e-05,5.66014826312011e-05
20.264,1.5037907249774e-05,5.65672565015614e-05
20.2645,1.50548153110898e-05,5.65337628198457e-05
20.265,1.507186250684e-05,5.65009962697978e-05
20.2655,1.50890463211229e-05,5.64689514777981e-05
20.266,1.51063642511278e-05,5.64376230147688e-05
20.2665,1.51238138071437e-05,5.64070053980898e-05
20.267,1.51413925125615e-05,5.63770930935239e-05
20.2675,1.51590979038707e-05,5.63478805171533e-05
20.268,1.51769275306505e-05,5.63193620373252e-05
20.2685,1.51948789555549e-05,5.62915319766088e-05
20.269,1.52129497542932e-05,5.62643846137611e-05
20.2695,1.52311375156053e-05,5.62379141857034e-05
20.27,1.52494398412321e-05,5.62121148895082e-05
20.2705,1.52678543458816e-05,5.6186980884395e-05
20.271,1.52863786571901e-05,5.61625062937368e-05
20.2715,1.530501041568e-05,5.61386852070765e-05
20.272,1.53237472747133e-05,5.61155116821521e-05
20.2725,1.53425869004413e-05,5.6092979746933e-05
20.273,1.53615269717509e-05,5.60710834016646e-05
20.2735,1.53805651802082e-05,5.60498166209236e-05
20.274,1.53996992299983e-05,5.60291733556818e-05
20.2745,1.54189268378623e-05,5.60091475353806e-05
20.275,1.54382457330327e-05,5.59897330700134e-05
20.2755,1.54576536571652e-05,5.59709238522178e-05
20.276,1.54771483642691e-05,5.5952713759378e-05
20.2765,1.54967276206354e-05,5.59350966557341e-05
20.277,1.55163892047632e-05,5.59180663945025e-05
20.2775,1.55361309072847e-05,5.59016168200032e-05
20.278,1.55559505308887e-05,5.58857417697971e-05
20.2785,1.5575845890243e-05,5.58704350768315e-05
20.279,1.55958148119158e-05,5.58556905715929e-05
20.2795,1.56158551342966e-05,5.58415020842695e-05
20.28,1.56359647075161e-05,5.58278634469209e-05
20.2805,1.56561413933658e-05,5.58147684956551e-05
20.281,1.56763830652181e-05,5.58022110728137e-05
20.2815,1.56966876079451e-05,5.57901850291646e-05
20.282,1.57170529178388e-05,5.57786842261005e-05
20.2825,1.5737476902531e-05,5.57677025378452e-05
20.283,1.57579574809135e-05,5.57572338536661e-05
20.2835,1.57784925830595e-05,5.57472720800925e-05
20.284,1.57990801501454e-05,5.57378111431393e-05
20.2845,1.58197181343739e-05,5.57288449905366e-05
20.285,1.58404044988977e-05,5.57203675939643e-05
20.2855,1.58611372177455e-05,5.57123729512902e-05
20.286,1.58819142757478e-05,5.5704855088813e-05
20.2865,1.5902733668466e-05,5.56978080635084e-05
20.287,1.5923593402122e-05,5.56912259652782e-05
20.2875,1.59444914935301e-05,5.56851029192019e-05
20.288,1.59654259700307e-05,5.56794330877896e-05
20.2885,1.59863948694263e-05,5.56742106732373e-05
20.289,1.60073962399195e-05,5.56694299196811e-05
20.2895,1.60284281400532e-05,5.5665085115453e-05
20.29,1.60494886386532e-05,5.56611705953342e-05
20.2905,1.60705758147739e-05,5.56576807428078e-05
20.291,1.60916877576455e-05,5.5654609992309e-05
20.2915,1.6112822566625e-05,5.56519528314715e-05
20.292,1.6133978351149e-05,5.56497038033705e-05
20.2925,1.61551532306902e-05,5.56478575087606e-05
20.293,1.61763453347161e-05,5.56464086083066e-05
20.2935,1.61975528026507e-05,5.56453518248098e-05
20.294,1.62187737838402e-05,5.56446819454242e-05
20.2945,1.62400064375204e-05,5.56443938238653e-05
20.295,1.62612489327878e-05,5.56444823826081e-05
20.2955,1.62824994485744e-05,5.56449426150751e-05
20.296,1.63037561736246e-05,5.56457695878109e-05
20.2965,1.63250173064763e-05,5.56469584426452e-05
20.297,1.63462810554445e-05,5.56485043988399e-05
20.2975,1.63675456386083e-05,5.56504027552219e-05
20.298,1.63888092838014e-05,5.56526488922985e-05
20.2985,1.64100702286053e-05,5.5655238274355e-05
20.299,1.64313267203463e-05,5.56581664515336e-05
20.2995,1.64525770160951e-05,5.5661429061891e-05
20.3,1.64738193826696e-05,5.56650218334355e-05
20.3005,1.64950520966417e-05,5.56689405861409e-05
20.301,1.65162734443454e-05,5.56731812339356e-05
20.3015,1.653748172189e-05,5.56777397866674e-05
20.302,1.65586752351745e-05,5.56826123520416e-05
20.3025,1.65798522999061e-05,5.56877951375299e-05
20.303,1.66010112416208e-05,5.56932844522524e-05
20.3035,1.66221503957075e-05,5.56990767088272e-05
20.304,1.66432681074343e-05,5.57051684251891e-05
20.3045,1.66643627319774e-05,5.57115562263759e-05
20.305,1.66854326344531e-05,5.57182368462793e-05
20.3055,1.67064761899521e-05,5.5725207129361e-05
20.306,1.67274917835759e-05,5.57324640323323e-05
20.3065,1.6748477810476e-05,5.5740004625795e-05
20.307,1.6769432675895e-05,5.57478260958437e-05
20.3075,1.67903547952104e-05,5.57559257456275e-05
20.308,1.681124259398e-05,5.57643009968697e-05
20.3085,1.68320945079895e-05,5.5772949391346e-05
20.309,1.68529089833021e-05,5.5781868592317e-05
20.3095,1.68736844763098e-05,5.57910563859179e-05
20.31,1.68944194537862e-05,5.58005106825002e-05
20.3105,1.6915112392942e-05,5.58102295179273e-05
20.311,1.69357617814801e-05,5.58202110548226e-05
20.3115,1.69563661176545e-05,5.58304535837664e-05
20.312,1.69769239103282e-05,5.58409555244456e-05
20.3125,1.69974336790344e-05,5.585171542675e-05
20.313,1.70178939540371e-05,5.58627319718179e-05
20.3135,1.70383032763943e-05,5.58740039730286e-05
20.314,1.70586601980206e-05,5.58855303769417e-05
20.3145,1.70789632817521e-05,5.5897310264181e-05
20.315,1.70992111014107e-05,5.59093428502643e-05
20.3155,1.71194022418705e-05,5.59216274863767e-05
20.316,1.71395352991227e-05,5.5934163660087e-05
20.3165,1.71596088803436e-05,5.59469509960074e-05
20.317,1.71796216039602e-05,5.59599892563949e-05
20.3175,1.7199572099718e-05,5.59732783416938e-05
20.318,1.72194590087481e-05,5.59868182910197e-05
20.3185,1.72392809836345e-05,5.60006092825828e-05
20.319,1.72590366884811e-05,5.60146516340522e-05
20.3195,1.72787247989789e-05,5.60289458028592e-05
20.32,1.72983440024727e-05,5.60434923864383e-05
20.3205,1.73178929980272e-05,5.60582921224082e-05
20.321,1.73373704964935e-05,5.60733458886903e-05
20.3215,1.73567752205737e-05,5.60886547035645e-05
20.322,1.7376105904886e-05,5.61042197256634e-05
20.3225,1.73953612960285e-05,5.61200422539028e-05
20.323,1.74145401526418e-05,5.61361237273491e-05
20.3235,1.74336412454719e-05,5.61524657250247e-05
20.324,1.74526633574302e-05,5.61690699656476e-05
20.3245,1.74716052836541e-05,5.61859383073099e-05
20.325,1.74904658315655e-05,5.62030727470905e-05
20.3255,1.75092438209278e-05,5.62204754206052e-05
20.326,1.75279380839021e-05,5.62381486014922e-05
20.3265,1.75465474651016e-05,5.62560947008343e-05
20.327,1.75650708216446e-05,5.62743162665164e-05
20.3275,1.75835070232054e-05,5.629281598252e-05
20.328,1.7601854952064e-05,5.6311596668153e-05
20.3285,1.7620113503154e-05,5.6330661277216e-05
20.329,1.76382815841078e-05,5.63500128971057e-05
20.3295,1.76563581153013e-05,5.63696547478534e-05
20.33,1.76743420298946e-05,5.63895901811008e-05
20.3305,1.76922322738729e-05,5.64098226790133e-05
20.331,1.7710027806083e-05,5.6430355853129e-05
20.3315,1.7727727598269e-05,5.64511934431458e-05
20.332,1.7745330635105e-05,5.6472339315646e-05
20.3325,1.7762835914226e-05,5.64937974627577e-05
20.333,1.77802424462554e-05,5.65155720007555e-05
20.3335,1.77975492548311e-05,5.65376671685987e-05
20.334,1.7814755376628e-05,5.6560087326409e-05
20.3345,1.78318598613786e-05,5.65828369538863e-05
20.335,1.78488617718907e-05,5.66059206486647e-05
20.3355,1.78657601840619e-05,5.66293431246086e-05
20.336,1.78825541868923e-05,5.66531092100479e-05
20.3365,1.78992428824934e-05,5.66772238459559e-05
20.337,1.79158253860945e-05,5.67016920840671e-05
20.3375,1.79323008260466e-05,5.67265190849372e-05
20.338,1.79486683438225e-05,5.67517101159453e-05
20.3385,1.79649270940147e-05,5.67772705492401e-05
20.339,1.798107624433e-05,5.68032058596281e-05
20.3395,1.79971149755811e-05,5.68295216224066e-05
20.34,1.80130424816749e-05,5.68562235111421e-05
20.3405,1.80288579695981e-05,5.68833172953931e-05
20.341,1.80445606593997e-05,5.691080883838e-05
20.3415,1.80601497841699e-05,5.69387040946003e-05
20.342,1.80756245900169e-05,5.69670091073938e-05
20.3425,1.80909843360392e-05,5.69957300064533e-05
20.343,1.81062282942959e-05,5.70248730052869e-05
20.3435,1.81213557497735e-05,5.70544443986289e-05
20.344,1.81363660003493e-05,5.70844505598011e-05
20.3445,1.81512583567522e-05,5.71148979380273e-05
20.345,1.81660321425199e-05,5.71457930556983e-05
20.3455,1.81806866939532e-05,5.71771425055921e-05
20.346,1.81952213600673e-05,5.72089529480468e-05
20.3465,1.82096355025395e-05,5.72412311080906e-05
20.347,1.82239284956547e-05,5.72739837725253e-05
20.3475,1.82380997262471e-05,5.73072177869707e-05
20.348,1.82521485936388e-05,5.73409400528634e-05
20.3485,1.82660745095762e-05,5.73751575244175e-05
20.349,1.82798768981627e-05,5.74098772055443e-05
20.3495,1.82935551957885e-05,5.74451061467339e-05
20.35,1.83071088510579e-05,5.74808514418988e-05
20.3505,1.83205373247133e-05,5.75171202251813e-05
20.351,1.83338400895566e-05,5.75539196677257e-05
20.3515,1.83470166303676e-05,5.75912569744157e-05
20.352,1.83600664438198e-05,5.76291393805788e-05
20.3525,1.83729890383938e-05,5.76675741486597e-05
20.353,1.83857839342869e-05,5.77065685648621e-05
20.3535,1.83984506633216e-05,5.77461299357603e-05
20.354,1.84109887688503e-05,5.77862655848851e-05
20.3545,1.84233978056585e-05,5.78269828492793e-05
20.355,1.84356773398639e-05,5.78682890760298e-05
20.3555,1.84478269488154e-05,5.79101916187734e-05
20.356,1.84598462209876e-05,5.79526978341813e-05
20.3565,1.84717347558743e-05,5.79958150784187e-05
20.357,1.84834921638791e-05,5.80395507035861e-05
20.3575,1.8495118066204e-05,5.80839120541392e-05
20.358,1.85066120947363e-05,5.81289064632917e-05
20.3585,1.85179738919324e-05,5.81745412493997e-05
20.359,1.85292031107009e-05,5.82208237123312e-05
20.3595,1.85402994142827e-05,5.82677611298211e-05
20.36,1.85512624761299e-05,5.8315360753812e-05
20.3605,1.85620919797825e-05,5.83636298067833e-05
20.361,1.85727876187441e-05,5.84125754780699e-05
20.3615,1.85833490963547e-05,5.84622049201708e-05
20.362,1.85937761256635e-05,5.8512525245049e-05
20.3625,1.86040684292989e-05,5.85635435204258e-05
20.363,1.86142257393382e-05,5.8615266766067e-05
20.3635,1.86242477971747e-05,5.86677019500672e-05
20.364,1.86341343533852e-05,5.87208559851281e-05
20.3645,1.8643885167595e-05,5.87747357248365e-05
20.365,1.86535000083426e-05,5.88293479599406e-05
20.3655,1.86629786529428e-05,5.88846994146273e-05
20.366,1.867232088735e-05,5.89407967428001e-05
20.3665,1.86815265060197e-05,5.89976465243604e-05
20.367,1.86905953117697e-05,5.90552552614932e-05
20.3675,1.86995271156411e-05,5.9113629374957e-05
20.368,1.87083217367583e-05,5.91727752003809e-05
20.3685,1.87169790021885e-05,5.92326989845687e-05
20.369,1.87254987468022e-05,5.92934068818121e-05
20.3695,1.87338808131316e-05,5.93549049502137e-05
20.37,1.87421250512305e-05,5.94171991480212e-05
20.3705,1.87502313185338e-05,5.94802953299731e-05
20.371,1.87581994797165e-05,5.95441992436587e-05
20.3715,1.8766029406554e-05,5.96089165258924e-05
20.372,1.87737209777818e-05,5.96744526991027e-05
20.3725,1.87812740789563e-05,5.97408131677389e-05
20.373,1.87886886023157e-05,5.98080032146949e-05
20.3735,1.87959644466416e-05,5.9876027997753e-05
20.374,1.88031015171218e-05,5.99448925460465e-05
20.3745,1.88100997252128e-05,6.00146017565432e-05
20.375,1.88169589885048e-05,6.00851603905529e-05
20.3755,1.88236792305861e-05,6.01565730702566e-05
20.376,1.88302603809099e-05,6.022884427526e-05
20.3765,1.88367023746615e-05,6.03019783391738e-05
20.377,1.88430051526271e-05,6.03759794462196e-05
20.3775,1.88491686610639e-05,6.04508516278625e-05
20.378,1.88551928515719e-05,6.05265987594752e-05
20.3785,1.88610776809668e-05,6.06032245570291e-05
20.379,1.88668231111553e-05,6.06807325738175e-05
20.3795,1.88724291090111e-05,6.0759126197212e-05
20.38,1.88778956462537e-05,6.08384086454489e-05
20.3805,1.88832226993286e-05,6.09185829644533e-05
20.381,1.88884102492895e-05,6.09996520246968e-05
20.3815,1.88934582816827e-05,6.10816185180909e-05
20.382,1.88983667864332e-05,6.11644849549196e-05
20.3825,1.89031357577341e-05,6.1248253660809e-05
20.383,1.89077651939363e-05,6.13329267737383e-05
20.3835,1.89122550974429e-05,6.14185062410893e-05
20.384,1.89166054746037e-05,6.15049938167402e-05
20.3845,1.89208163356138e-05,6.15923910582002e-05
20.385,1.8924887694414e-05,6.1680699323789e-05
20.3855,1.89288195685933e-05,6.17699197698618e-05
20.386,1.89326119792953e-05,6.18600533480791e-05
20.3865,1.89362649511255e-05,6.19511008027246e-05
20.387,1.89397785120631e-05,6.20430626680708e-05
20.3875,1.89431526933736e-05,6.21359392657939e-05
20.388,1.8946387529526e-05,6.22297307024389e-05
20.3885,1.89494830581113e-05,6.23244368669356e-05
20.389,1.89524393197651e-05,6.24200574281674e-05
20.3895,1.89552563580914e-05,6.25165918325927e-05
20.39,1.89579342195914e-05,6.26140393019214e-05
20.3905,1.89604729535932e-05,6.27123988308447e-05
20.391,1.89628726121857e-05,6.28116691848231e-05
20.3915,1.89651332501549e-05,6.29118488979315e-05
20.392,1.89672549249235e-05,6.30129362707602e-05
20.3925,1.89692376964929e-05,6.31149293683772e-05
20.393,1.89710816273891e-05,6.32178260183493e-05
20.3935,1.89727867826107e-05,6.33216238088248e-05
20.394,1.89743532295804e-05,6.34263200866763e-05
20.3945,1.89757810380998e-05,6.35319119557084e-05
20.395,1.89770702803062e-05,6.36383962749268e-05
20.3955,1.89782210306338e-05,6.37457696568727e-05
20.396,1.8979233365777e-05,6.38540284660217e-05
20.3965,1.8980107364657e-05,6.3963168817249e-05
20.397,1.89808431083916e-05,6.407318657436e-05
20.3975,1.89814406802677e-05,6.418407734869e-05
20.398,1.89819001657171e-05,6.42958364977698e-05
20.3985,1.89822216522957e-05,6.4408459124061e-05
20.399,1.89824052296648e-05,6.45219400737601e-05
20.3995,1.89824509895765e-05,6.46362739356735e-05
20.4,1.89823590258611e-05,6.47514550401598e-05
20.4005,1.89821294344186e-05,6.48674774581475e-05
20.401,1.89817623132124e-05,6.49843350002199e-05
20.4015,1.89812577622665e-05,6.51020212157743e-05
20.402,1.89806158836656e-05,6.52205293922538e-05
20.4025,1.89798367815577e-05,6.53398525544502e-05
20.403,1.89789205621609e-05,6.54599834638818e-05
20.4035,1.8977867333772e-05,6.55809146182439e-05
20.404,1.89766772067784e-05,6.5702638250935e-05
20.4045,1.89753502936738e-05,6.58251463306549e-05
20.405,1.89738867090755e-05,6.59484305610804e-05
20.4055,1.89722865697456e-05,6.60724823806146e-05
20.406,1.89705499946152e-05,6.6197292962212e-05
20.4065,1.89686771048107e-05,6.63228532132802e-05
20.407,1.89666680236839e-05,6.64491537756567e-05
20.4075,1.8964522876845e-05,6.65761850256631e-05
20.408,1.89622417921976e-05,6.67039370742349e-05
20.4085,1.89598248999778e-05,6.68323997671295e-05
20.409,1.89572723327953e-05,6.69615626852097e-05
20.4095,1.89545842256783e-05,6.70914151448062e-05
20.41,1.89517607161203e-05,6.72219461981557e-05
20.4105,1.89488019441307e-05,6.7353144633918e-05
20.411,1.89457080522877e-05,6.74849989777688e-05
20.4115,1.89424791857948e-05,6.76174974930729e-05
20.412,1.89391154925392e-05,6.77506281816322e-05
20.4125,1.89356171231542e-05,6.78843787845129e-05
20.413,1.89319842310836e-05,6.80187367829504e-05
20.4135,1.89282169726498e-05,6.81536893993308e-05
20.414,1.8924315507124e-05,6.82892235982512e-05
20.4145,1.89202799967997e-05,6.84253260876567e-05
20.415,1.89161106070693e-05,6.85619833200548e-05
20.4155,1.8911807506503e-05,6.86991814938071e-05
20.416,1.89073708669311e-05,6.88369065544984e-05
20.4165,1.89028008635283e-05,6.89751441963831e-05
20.417,1.88980976749023e-05,6.91138798639061e-05
20.4175,1.88932614831833e-05,6.92530987533036e-05
20.418,1.88882924741181e-05,6.93927858142778e-05
20.4185,1.88831908371655e-05,6.95329257517484e-05
20.419,1.88779567655956e-05,6.96735030276799e-05
20.4195,1.88725904565909e-05,6.98145018629853e-05
20.42,1.88670921113506e-05,6.99559062395025e-05
20.4205,1.8861461935198e-05,7.00976999020495e-05
20.421,1.8855700137689e-05,7.02398663605499e-05
20.4215,1.88498069327252e-05,7.03823888922368e-05
20.422,1.88437825386679e-05,7.05252505439268e-05
20.4225,1.88376271784558e-05,7.06684341343702e-05
20.423,1.88313410797244e-05,7.08119222566727e-05
20.4235,1.8824924474928e-05,7.09556972807906e-05
20.424,1.88183776014648e-05,7.10997413560969e-05
20.4245,1.88117007018032e-05,7.12440364140205e-05
20.425,1.88048940236109e-05,7.13885641707551e-05
20.4255,1.87979578198868e-05,7.15333061300389e-05
20.426,1.8790892349094e-05,7.16782435860052e-05
20.4265,1.87836978752957e-05,7.18233576261008e-05
20.427,1.87763746682926e-05,7.19686291340742e-05
20.4275,1.87689230037628e-05,7.21140387930311e-05
20.428,1.87613431634032e-05,7.22595670885575e-05
20.4285,1.87536354350726e-05,7.24051943119098e-05
20.429,1.8745800112937e-05,7.25509005632694e-05
20.4295,1.87378374976163e-05,7.26966657550646e-05
20.43,1.87297478963322e-05,7.28424696153548e-05
20.4305,1.87215316230586e-05,7.29882916912794e-05
20.431,1.87131889986719e-05,7.31341113525691e-05
20.4315,1.87047203511041e-05,7.32799077951194e-05
20.432,1.86961260154961e-05,7.34256600446245e-05
20.4325,1.86874063343522e-05,7.35713469602723e-05
20.433,1.86785616576962e-05,7.37169472384978e-05
20.4335,1.86695923432275e-05,7.38624394167951e-05
20.434,1.86604987564788e-05,7.40078018775881e-05
20.4345,1.86512812709735e-05,7.41530128521552e-05
20.435,1.86419402683847e-05,7.42980504246117e-05
20.4355,1.86324761386939e-05,7.4442892535946e-05
20.436,1.86228892803499e-05,7.4587516988109e-05
20.4365,1.86131801004281e-05,7.47319014481565e-05
20.437,1.86033490147904e-05,7.48760234524421e-05
20.4375,1.85933964482433e-05,7.50198604108625e-05
20.438,1.85833228346979e-05,7.5163389611149e-05
20.4385,1.85731286173277e-05,7.53065882232102e-05
20.439,1.8562814248727e-05,7.54494333035198e-05
20.4395,1.8552380191068e-05,7.55919017995504e-05
20.44,1.85418269162578e-05,7.57339705542529e-05
20.4405,1.85311549060934e-05,7.58756163105785e-05
20.441,1.85203646524168e-05,7.60168157160433e-05
20.4415,1.85094566572684e-05,7.61575453273336e-05
20.442,1.84984314330383e-05,7.62977816149515e-05
20.4425,1.84872895026178e-05,7.64375009678981e-05
20.443,1.84760313995478e-05,7.65766796983953e-05
20.4435,1.8464657668166e-05,7.67152940466414e-05
20.444,1.84531688637522e-05,7.68533201856034e-05
20.4445,1.84415655526718e-05,7.69907342258415e-05
20.445,1.84298483125163e-05,7.71275122203655e-05
20.4455,1.84180177322428e-05,7.7263630169522e-05
20.446,1.84060744123096e-05,7.73990640259105e-05
20.4465,1.83940189648104e-05,7.75337896993284e-05
20.447,1.8381852013605e-05,7.76677830617411e-05
20.4475,1.83695741944477e-05,7.78010199522774e-05
20.448,1.83571861551125e-05,7.79334761822508e-05
20.4485,1.83446885555148e-05,7.80651275401988e-05
20.449,1.83320820678305e-05,7.81959497969483e-05
20.4495,1.83193673766115e-05,7.83259187106954e-05
20.45,1.83065451788975e-05,7.84550100321078e-05
20.4505,1.82936161843246e-05,7.85831995094399e-05
20.451,1.82805811152295e-05,7.87104628936663e-05
20.4515,1.82674407067512e-05,7.88367759436264e-05
20.452,1.82541957069267e-05,7.89621144311834e-05
20.4525,1.82408468767845e-05,7.90864541463928e-05
20.453,1.82273949904332e-05,7.92097709026798e-05
20.4535,1.82138408351457e-05,7.93320405420265e-05
20.454,1.8200185211439e-05,7.9453238940164e-05
20.4545,1.81864289331502e-05,7.95733420117691e-05
20.455,1.81725728275066e-05,7.9692325715666e-05
20.4555,1.81586177351928e-05,7.98101660600283e-05
20.456,1.81445645104114e-05,7.99268391075834e-05
20.4565,1.81304140209402e-05,8.00423209808135e-05
20.457,1.81161671481835e-05,8.01565878671568e-05
20.4575,1.81018247872188e-05,8.0269616024203e-05
20.458,1.80873878468387e-05,8.0381381784885e-05
20.4585,1.80728572495868e-05,8.04918615626621e-05
20.459,1.80582339317892e-05,8.06010318566969e-05
20.4595,1.80435188435802e-05,8.07088692570218e-05
20.46,1.80287129489229e-05,8.08153504496944e-05
20.4605,1.8013817225624e-05,8.09204522219412e-05
20.461,1.79988326653433e-05,8.1024151467287e-05
20.4615,1.79837602735981e-05,8.11264251906698e-05
20.462,1.79686010697611e-05,8.12272505135391e-05
20.4625,1.79533560870533e-05,8.13266046789353e-05
20.463,1.79380263725308e-05,8.14244650565524e-05
20.4635,1.79226129870665e-05,8.15208091477778e-05
20.464,1.79071170053252e-05,8.16156145907115e-05
20.4645,1.78915395157336e-05,8.17088591651626e-05
20.465,1.78758816204437e-05,8.180052079762e-05
20.4655,1.78601444352915e-05,8.18905775661986e-05
20.466,1.78443290897487e-05,8.19790077055584e-05
20.4665,1.78284367268691e-05,8.20657896117953e-05
20.467,1.78124685032291e-05,8.21509018473016e-05
20.4675,1.77964255888621e-05,8.22343231455978e-05
20.468,1.77803091671876e-05,8.23160324161307e-05
20.4685,1.77641204349334e-05,8.23960087490388e-05
20.469,1.77478606020531e-05,8.24742314198849e-05
20.4695,1.77315308916368e-05,8.25506798943513e-05
20.47,1.7715132539817e-05,8.26253338329004e-05
20.4705,1.76986667956674e-05,8.26981730953959e-05
20.471,1.76821349210973e-05,8.27691777456871e-05
20.4715,1.76655381907393e-05,8.28383280561524e-05
20.472,1.76488778918321e-05,8.29056045122022e-05
20.4725,1.76321553240967e-05,8.29709878167408e-05
20.473,1.76153717996078e-05,8.30344588945839e-05
20.4735,1.75985286426595e-05,8.30959988968339e-05
20.474,1.75816271896253e-05,8.31555892052106e-05
20.4745,1.75646687888126e-05,8.32132114363345e-05
20.475,1.75476548003123e-05,8.32688474459657e-05
20.4755,1.75305865958425e-05,8.33224793331942e-05
20.476,1.75134655585872e-05,8.33740894445823e-05
20.4765,1.749629308303e-05,8.34236603782569e-05
20.477,1.74790705747821e-05,8.34711749879544e-05
20.4775,1.74617994504062e-05,8.35166163870117e-05
20.478,1.74444811372344e-05,8.35599679523082e-05
20.4785,1.74271170731817e-05,8.36012133281537e-05
20.479,1.74097087065548e-05,8.36403364301242e-05
20.4795,1.73922574958558e-05,8.36773214488448e-05
20.48,1.73747649095816e-05,8.37121528537157e-05
20.4805,1.73572324260183e-05,8.37448153965853e-05
20.481,1.73396615330313e-05,8.37752941153669e-05
20.4815,1.7322053727851e-05,8.38035743375981e-05
20.482,1.73044105168542e-05,8.38296416839445e-05
20.4825,1.72867334153409e-05,8.38534820716444e-05
20.483,1.72690239473076e-05,8.38750817178961e-05
20.4835,1.72512836452155e-05,8.38944271431863e-05
20.484,1.72335140497557e-05,8.39115051745583e-05
20.4845,1.72157167096102e-05,8.39263029488211e-05
20.485,1.71978931812082e-05,8.3938807915697e-05
20.4855,1.71800450284804e-05,8.39490078409097e-05
20.486,1.71621738226081e-05,8.39568908092089e-05
20.4865,1.71442811417692e-05,8.39624452273346e-05
20.487,1.71263685708817e-05,8.39656598269167e-05
20.4875,1.71084377013419e-05,8.39665236673145e-05
20.488,1.70904901307617e-05,8.39650261383904e-05
20.4885,1.70725274627005e-05,8.39611569632192e-05
20.489,1.70545513063957e-05,8.39549062007362e-05
20.4895,1.70365632764894e-05,8.39462642483166e-05
20.49,1.70185649927524e-05,8.39352218442924e-05
20.4905,1.70005580798055e-05,8.39217700704026e-05
20.491,1.69825441668381e-05,8.3905900354178e-05
20.4915,1.69645248873241e-05,8.38876044712586e-05
20.492,1.69465018787356e-05,8.38668745476455e-05
20.4925,1.69284767822542e-05,8.38437030618855e-05
20.493,1.69104512424793e-05,8.38180828471878e-05
20.4935,1.68924269071358e-05,8.37900070934738e-05
20.494,1.68744054267778e-05,8.37594693493584e-05
20.4945,1.68563884544919e-05,8.37264635240631e-05
20.495,1.6838377645598e-05,8.36909838892615e-05
20.4955,1.6820374657348e-05,8.36530250808547e-05
20.496,1.68023811486238e-05,8.36125821006783e-05
20.4965,1.67843987796328e-05,8.35696503181405e-05
20.497,1.67664292116027e-05,8.352422547179e-05
20.4975,1.6748474106474e-05,8.34763036708144e-05
20.498,1.67305351265928e-05,8.34258813964693e-05
20.4985,1.6712613934401e-05,8.3372955503436e-05
20.499,1.66947121921263e-05,8.33175232211088e-05
20.4995,1.66768315614711e-05,8.32595821548148e-05
20.5,1.6658973703301e-05,8.31991302869574e-05
20.5005,1.66411402773319e-05,8.31361659780943e-05
20.501,1.66233329418169e-05,8.30706879679413e-05
20.5015,1.66055533532337e-05,8.30026953763055e-05
20.502,1.65878031659698e-05,8.29321877039484e-05
20.5025,1.65700840320093e-05,8.28591648333751e-05
20.503,1.65523976006187e-05,8.27836270295548e-05
20.5035,1.65347455180325e-05,8.27055749405672e-05
20.504,1.65171294271401e-05,8.26250095981789e-05
20.5045,1.64995509671719e-05,8.2541932418347e-05
20.505,1.64820117733858e-05,8.24563452016513e-05
20.5055,1.64645134767549e-05,8.23682501336544e-05
20.506,1.64470577036556e-05,8.22776497851909e-05
20.5065,1.64296460755557e-05,8.21845471125825e-05
20.507,1.64122802087042e-05,8.2088945457784e-05
20.5075,1.63949617138219e-05,8.19908485484555e-05
20.508,1.63776921957925e-05,8.1890260497964e-05
20.5085,1.63604732533559e-05,8.17871858053117e-05
20.509,1.63433064788015e-05,8.1681629354995e-05
20.5095,1.63261934576643e-05,8.15735964167901e-05
20.51,1.63091357684214e-05,8.14630926454674e-05
20.5105,1.62921349821907e-05,8.13501240804357e-05
20.511,1.62751926624312e-05,8.12346971453141e-05
20.5115,1.62583103646454e-05,8.11168186474341e-05
20.512,1.62414896360831e-05,8.0996495777269e-05
20.5125,1.62247320154481e-05,8.0873736107795e-05
20.513,1.62080390326058e-05,8.07485475937811e-05
20.5135,1.61914122082948e-05,8.06209385710076e-05
20.514,1.61748530538395e-05,8.04909177554163e-05
20.5145,1.61583630708654e-05,8.03584942421908e-05
20.515,1.61419437510178e-05,8.02236775047668e-05
20.5155,1.6125596575682e-05,8.0086477393773e-05
20.516,1.61093230157073e-05,7.99469041359043e-05
20.5165,1.60931245311332e-05,7.98049683327256e-05
20.517,1.60770025709187e-05,7.9660680959406e-05
20.5175,1.60609585726747e-05,7.95140533633886e-05
20.518,1.60449939623999e-05,7.93650972629882e-05
20.5185,1.60291101542185e-05,7.92138247459244e-05
20.519,1.6013308550123e-05,7.90602482677867e-05
20.5195,1.59975905397193e-05,7.89043806504327e-05
20.52,1.59819574999748e-05,7.87462350803198e-05
20.5205,1.59664107949709e-05,7.85858251067713e-05
20.521,1.59509517756583e-05,7.84231646401758e-05
20.5215,1.59355817796163e-05,7.82582679501217e-05
20.522,1.59203021308155e-05,7.80911496634664e-05
20.5225,1.59051141393835e-05,7.7921824762341e-05
20.523,1.58900191013756e-05,7.77503085820895e-05
20.5235,1.58750182985482e-05,7.75766168091452e-05
20.524,1.58601129981357e-05,7.74007654788425e-05
20.5245,1.58453044526324e-05,7.7222770973165e-05
20.525,1.58305938995769e-05,7.70426500184314e-05
20.5255,1.58159825613406e-05,7.68604196829173e-05
20.526,1.5801471644921e-05,7.66760973744167e-05
20.5265,1.57870623417367e-05,7.64897008377386e-05
20.527,1.5772755827429e-05,7.63012481521442e-05
20.5275,1.57585532616644e-05,7.61107577287212e-05
20.528,1.57444557879433e-05,7.59182483076989e-05
20.5285,1.5730464533411e-05,7.57237389557e-05
20.529,1.57165806086735e-05,7.55272490629347e-05
20.5295,1.57028051076159e-05,7.53287983403336e-05
20.53,1.5689139107226e-05,7.51284068166204e-05
20.5305,1.56755836674204e-05,7.49260948353277e-05
20.531,1.56621398308752e-05,7.47218830517513e-05
20.5315,1.56488086228598e-05,7.45157924298479e-05
20.532,1.56355910510748e-05,7.43078442390747e-05
20.5325,1.56224881054935e-05,7.40980600511711e-05
20.533,1.56095007582068e-05,7.38864617368826e-05
20.5335,1.55966299632721e-05,7.36730714626296e-05
20.534,1.55838766565651e-05,7.34579116871191e-05
20.5345,1.55712417556363e-05,7.32410051579001e-05
20.535,1.55587261595696e-05,7.3022374907865e-05
20.5355,1.55463307488455e-05,7.28020442516956e-05
20.536,1.55340563852073e-05,7.25800367822542e-05
20.5365,1.55219039115303e-05,7.23563763669221e-05
20.537,1.55098741516949e-05,7.21310871438844e-05
20.5375,1.54979679104629e-05,7.19041935183615e-05
20.538,1.54861859733566e-05,7.16757201587892e-05
20.5385,1.54745291065416e-05,7.14456919929475e-05
20.539,1.54629980567123e-05,7.12141342040371e-05
20.5395,1.54515935509809e-05,7.0981072226707e-05
20.54,1.54403162967688e-05,7.07465317430312e-05
20.5405,1.54291669817018e-05,7.05105386784375e-05
20.541,1.54181462735076e-05,7.02731191975861e-05
20.5415,1.54072548199162e-05,7.00342997002022e-05
20.542,1.53964932485634e-05,6.9794106816861e-05
20.5425,1.53858621668971e-05,6.95525674047251e-05
20.543,1.53753621620859e-05,6.93097085432383e-05
20.5435,1.53649938009307e-05,6.90655575297727e-05
20.544,1.5354757629779e-05,6.8820141875233e-05
20.5445,1.53446541744415e-05,6.85734892996169e-05
20.545,1.53346839401112e-05,6.83256277275332e-05
20.5455,1.53248474112857e-05,6.80765852836771e-05
20.546,1.53151450516911e-05,6.78263902882676e-05
20.5465,1.53055773042086e-05,6.75750712524408e-05
20.547,1.52961445908037e-05,6.73226568736076e-05
20.5475,1.52868473124578e-05,6.70691760307714e-05
20.548,1.52776858491018e-05,6.68146577798085e-05
20.5485,1.52686605595521e-05,6.65591313487135e-05
20.549,1.52597717814492e-05,6.6302626132807e-05
20.5495,1.52510198311983e-05,6.60451716899105e-05
20.55,1.52424050039121e-05,6.57867977354871e-05
20.5505,1.5233927573356e-05,6.55275341377502e-05
20.551,1.52255877918957e-05,6.52674109127385e-05
20.5515,1.52173858904462e-05,6.50064582193638e-05
20.552,1.52093220784243e-05,6.47447063544264e-05
20.5525,1.52013965437018e-05,6.44821857476024e-05
20.553,1.51936094525621e-05,6.42189269564055e-05
20.5535,1.51859609496585e-05,6.39549606611187e-05
20.554,1.51784511579744e-05,6.36903176597047e-05
20.5545,1.5171080178786e-05,6.34250288626881e-05
20.555,1.51638480916273e-05,6.31591252880176e-05
20.5555,1.5156754954257e-05,6.28926380559037e-05
20.556,1.51498008026275e-05,6.26255983836368e-05
20.5565,1.51429856508561e-05,6.23580375803848e-05
20.557,1.5136309491199e-05,6.20899870419712e-05
20.5575,1.51297722940264e-05,6.18214782456377e-05
20.558,1.5123374007801e-05,6.15525427447872e-05
20.5585,1.51171145590574e-05,6.1283212163714e-05
20.559,1.51109938523849e-05,6.10135181923181e-05
20.5595,1.51050117704118e-05,6.07434925808071e-05
20.56,1.50991681737922e-05,6.04731671343857e-05
20.5605,1.50934629011953e-05,6.02025737079338e-05
20.561,1.50878957692964e-05,5.99317442006763e-05
20.5615,1.50824665727704e-05,5.96607105508428e-05
20.562,1.50771750842882e-05,5.93895047303198e-05
20.5625,1.50720210545144e-05,5.91181587392972e-05
20.563,1.50670042121081e-05,5.88467046009096e-05
20.5635,1.50621242637261e-05,5.85751743558723e-05
20.564,1.50573808940277e-05,5.83036000571151e-05
20.5645,1.50527737656828e-05,5.80320137644139e-05
20.565,1.50483025193819e-05,5.77604475390217e-05
20.5655,1.50439667738486e-05,5.74889334382992e-05
20.566,1.50397661258547e-05,5.72175035103471e-05
20.5665,1.50357001502377e-05,5.69461897886416e-05
20.567,1.50317683999211e-05,5.66750242866713e-05
20.5675,1.50279704059362e-05,5.64040389925815e-05
20.568,1.50243056774478e-05,5.6133265863822e-05
20.5685,1.50207737017819e-05,5.58627368218021e-05
20.569,1.50173739444555e-05,5.55924837465544e-05
20.5695,1.50141058492099e-05,5.53225384714067e-05
20.57,1.50109688380458e-05,5.50529327776632e-05
20.5705,1.50079623112624e-05,5.47836983892986e-05
20.571,1.5005085647497e-05,5.45148669676622e-05
20.5715,1.500233820377e-05,5.42464701061964e-05
20.572,1.49997193155305e-05,5.39785393251689e-05
20.5725,1.49972282967057e-05,5.37111060664204e-05
20.573,1.49948644397535e-05,5.34442016881279e-05
20.5735,1.49926270157165e-05,5.31778574595861e-05
20.574,1.49905152742804e-05,5.29121045560068e-05
20.5745,1.49885284438346e-05,5.26469740533369e-05
20.575,1.49866657315358e-05,5.2382496923098e-05
20.5755,1.49849263233743e-05,5.21187040272466e-05
20.576,1.49833093842441e-05,5.18556261130563e-05
20.5765,1.4981814058015e-05,5.15932938080247e-05
20.577,1.49804394676084e-05,5.13317376148031e-05
20.5775,1.49791847150759e-05,5.1070987906152e-05
20.578,1.4978048881681e-05,5.0811074919924e-05
20.5785,1.49770310279842e-05,5.05520287540723e-05
20.579,1.49761301939305e-05,5.02938793616884e-05
20.5795,1.4975345398941e-05,5.00366565460689e-05
20.58,1.49746756420066e-05,4.97803899558126e-05
20.5805,1.49741199017863e-05,4.9525109079948e-05
20.581,1.49736771367072e-05,4.92708432430937e-05
20.5815,1.49733462850686e-05,4.90176216006519e-05
20.582,1.49731262651498e-05,4.87654731340346e-05
20.5825,1.49730159753198e-05,4.85144266459262e-05
20.583,1.49730142941518e-05,4.82645107555811e-05
20.5835,1.49731200805404e-05,4.8015753894159e-05
20.584,1.49733321738217e-05,4.77681843000957e-05
20.5845,1.4973649393898e-05,4.75218300145158e-05
20.585,1.49740705413648e-05,4.72767188766823e-05
20.5855,1.49745943976421e-05,4.70328785194879e-05
20.586,1.49752197251082e-05,4.67903363649873e-05
20.5865,1.49759452672384e-05,4.65491196199723e-05
20.587,1.49767697487459e-05,4.63092552715897e-05
20.5875,1.4977691875727e-05,4.60707700830032e-05
20.588,1.49787103358096e-05,4.58336905891005e-05
20.5885,1.49798237983054e-05,4.55980430922463e-05
20.589,1.49810309143657e-05,4.53638536580818e-05
20.5895,1.49823303171411e-05,4.51311481113723e-05
20.59,1.49837206219441e-05,4.48999520319019e-05
20.5905,1.49852004264165e-05,4.46702907504192e-05
20.591,1.49867683106994e-05,4.44421893446317e-05
20.5915,1.49884228376081e-05,4.42156726352521e-05
20.592,1.49901625528095e-05,4.39907651820951e-05
20.5925,1.49919859850045e-05,4.37674912802282e-05
20.593,1.49938916461134e-05,4.35458749561746e-05
20.5935,1.49958780314656e-05,4.33259399641706e-05
20.594,1.49979436199927e-05,4.31077097824784e-05
20.5945,1.50000868744261e-05,4.28912076097531e-05
20.595,1.5002306241498e-05,4.26764563614678e-05
20.5955,1.50046001521466e-05,4.24634786663945e-05
20.596,1.5006967021725e-05,4.22522968631438e-05
20.5965,1.50094052502147e-05,4.20429329967614e-05
20.597,1.50119132224418e-05,4.18354088153867e-05
20.5975,1.50144893082989e-05,4.16297457669688e-05
20.598,1.50171318629696e-05,4.14259649960439e-05
20.5985,1.50198392271575e-05,4.12240873405751e-05
20.599,1.50226097273198e-05,4.10241333288526e-05
20.5995,1.50254416759038e-05,4.08261231764574e-05
20.6,1.50283333715884e-05,4.0630076783288e-05
20.6005,1.50312830995295e-05,4.0436013730652e-05
20.601,1.50342891316088e-05,4.02439532784205e-05
20.6015,1.50373497266879e-05,4.00539143622495e-05
20.602,1.50404631308648e-05,3.98659155908656e-05
20.6025,1.50436275777363e-05,3.9679975243419e-05
20.603,1.50468412886628e-05,3.94961112669038e-05
20.6035,1.50501024730384e-05,3.93143412736441e-05
20.604,1.50534093285644e-05,3.91346825388502e-05
20.6045,1.50567600415268e-05,3.89571519982414e-05
20.605,1.50601527870786e-05,3.87817662457394e-05
20.6055,1.5063585729525e-05,3.86085415312303e-05
20.606,1.50670570226132e-05,3.84374937583967e-05
20.6065,1.50705648098267e-05,3.82686384826201e-05
20.607,1.50741072246827e-05,3.81019909089546e-05
20.6075,1.50776823910337e-05,3.79375658901712e-05
20.608,1.50812884233737e-05,3.7775377924874e-05
20.6085,1.5084923427147e-05,3.76154411556886e-05
20.609,1.50885854990626e-05,3.74577693675223e-05
20.6095,1.50922727274109e-05,3.73023759858979e-05
20.61,1.50959831923854e-05,3.71492740753596e-05
20.6105,1.50997149664072e-05,3.69984763379534e-05
20.611,1.51034661144541e-05,3.684999511178e-05
20.6115,1.51072346943931e-05,3.67038423696229e-05
20.612,1.51110187573165e-05,3.65600297176502e-05
20.6125,1.51148163478816e-05,3.64185683941911e-05
20.613,1.51186255046546e-05,3.62794692685876e-05
20.6135,1.51224442604568e-05,3.61427428401206e-05
20.614,1.51262706427159e-05,3.60083992370124e-05
20.6145,1.5130102673819e-05,3.58764482155033e-05
20.615,1.51339383714705e-05,3.57468991590055e-05
20.6155,1.51377757490523e-05,3.56197610773316e-05
20.616,1.51416128159875e-05,3.54950426059999e-05
20.6165,1.51454475781077e-05,3.53727520056159e-05
20.617,1.51492780380223e-05,3.52528971613292e-05
20.6175,1.5153102195492e-05,3.51354855823682e-05
20.618,1.51569180478043e-05,3.50205244016505e-05
20.6185,1.51607235901525e-05,3.49080203754701e-05
20.619,1.51645168160166e-05,3.47979798832611e-05
20.6195,1.51682957175479e-05,3.46904089274385e-05
20.62,1.51720582859552e-05,3.45853131333162e-05
20.6205,1.51758025118937e-05,3.44826977491001e-05
20.621,1.51795263858566e-05,3.43825676459605e-05
20.6215,1.51832278985685e-05,3.4284927318179e-05
20.622,1.51869050413812e-05,3.41897808833741e-05
20.6225,1.5190555806671e-05,3.40971320828024e-05
20.623,1.51941781882389e-05,3.40069842817367e-05
20.6235,1.51977701817116e-05,3.39193404699214e-05
20.624,1.52013297849448e-05,3.38342032621038e-05
20.6245,1.52048549984278e-05,3.37515748986417e-05
20.625,1.52083438256895e-05,3.36714572461886e-05
20.6255,1.52117942737064e-05,3.35938517984536e-05
20.626,1.52152043533106e-05,3.35187596770382e-05
20.6265,1.52185720796003e-05,3.34461816323488e-05
20.627,1.52218954723499e-05,3.33761180445846e-05
20.6275,1.52251725564225e-05,3.33085689248015e-05
20.628,1.52284013621812e-05,3.32435339160507e-05
20.6285,1.52315799259029e-05,3.31810122945924e-05
20.629,1.52347062901914e-05,3.31210029711842e-05
20.6295,1.52377785043911e-05,3.3063504492444e-05
20.63,1.52407946250013e-05,3.30085150422862e-05
20.6305,1.52437527160896e-05,3.29560324434325e-05
20.631,1.52466508497065e-05,3.29060541589953e-05
20.6315,1.5249487106299e-05,3.28585772941342e-05
20.632,1.52522595751239e-05,3.28135985977846e-05
20.6325,1.52549663546612e-05,3.2771114464459e-05
20.633,1.52576055530262e-05,3.27311209361182e-05
20.6335,1.52601752883816e-05,3.26936137041153e-05
20.634,1.52626736893484e-05,3.26585881112087e-05
20.6345,1.52650988954157e-05,3.26260391536454e-05
20.635,1.52674490573498e-05,3.25959614833133e-05
20.6355,1.52697223376019e-05,3.25683494099624e-05
20.636,1.52719169107144e-05,3.25431969034938e-05
20.6365,1.52740309637262e-05,3.25204975963154e-05
20.637,1.52760626965756e-05,3.25002447857651e-05
20.6375,1.52780103225023e-05,3.24824314365993e-05
20.638,1.52798720684472e-05,3.24670501835467e-05
20.6385,1.52816461754507e-05,3.24540933339262e-05
20.639,1.52833308990481e-05,3.24435528703291e-05
20.6395,1.52849245096643e-05,3.24354204533628e-05
20.64,1.52864252930047e-05,3.24296874244579e-05
20.6405,1.52878315504449e-05,3.24263448087356e-05
20.641,1.52891415994175e-05,3.24253833179353e-05
20.6415,1.52903537737964e-05,3.24267933534015e-05
20.642,1.52914664242787e-05,3.243056500913e-05
20.6425,1.52924779187632e-05,3.24366880748705e-05
20.643,1.5293386642727e-05,3.24451520392859e-05
20.6435,1.52941909995985e-05,3.24559460931685e-05
20.644,1.52948894111278e-05,3.24690591327088e-05
20.6445,1.52954803177535e-05,3.24844797628198e-05
20.645,1.52959621789665e-05,3.2502196300513e-05
20.6455,1.52963334736713e-05,3.25221967783263e-05
20.646,1.52965927005421e-05,3.25444689478026e-05
20.6465,1.52967383783776e-05,3.25690002830184e-05
20.647,1.52967690464506e-05,3.25957779841603e-05
20.6475,1.52966832648547e-05,3.262478898115e-05
20.648,1.52964796148471e-05,3.26560199373154e-05
20.6485,1.52961566991877e-05,3.26894572531072e-05
20.649,1.52957131424744e-05,3.27250870698606e-05
20.6495,1.52951475914741e-05,3.27628952735999e-05
20.65,1.529445871545e-05,3.28028674988856e-05
20.6505,1.52936452064844e-05,3.28449891327032e-05
20.651,1.5292705779798e-05,3.2889245318392e-05
20.6515,1.52916391740642e-05,3.29356209596129e-05
20.652,1.52904441517194e-05,3.29841007243549e-05
20.6525,1.52891194992689e-05,3.30346690489778e-05
20.653,1.52876640275883e-05,3.30873101422914e-05
20.6535,1.52860765722204e-05,3.31420079896687e-05
20.654,1.52843559936671e-05,3.31987463571927e-05
20.6545,1.52825011776773e-05,3.32575087958364e-05
20.655,1.52805110355296e-05,3.33182786456727e-05
20.6555,1.52783845043102e-05,3.33810390401145e-05
20.656,1.52761205471861e-05,3.3445772910184e-05
20.6565,1.52737181536729e-05,3.35124629888087e-05
20.657,1.52711763398989e-05,3.35810918151439e-05
20.6575,1.5268494148862e-05,3.365164173892e-05
20.658,1.52656706506838e-05,3.37240949248133e-05
20.6585,1.52627049428567e-05,3.37984333568387e-05
20.659,1.52595961504868e-05,3.38746388427646e-05
20.6595,1.52563434265308e-05,3.3952693018546e-05
20.66,1.52529459520286e-05,3.40325773527768e-05
20.6605,1.5249402936329e-05,3.41142731511593e-05
20.661,1.52457136173111e-05,3.41977615609889e-05
20.6615,1.52418772615998e-05,3.42830235756537e-05
20.662,1.52378931647755e-05,3.43700400391474e-05
20.6625,1.52337606515782e-05,3.44587916505936e-05
20.663,1.52294790761063e-05,3.45492589687808e-05
20.6635,1.52250478220089e-05,3.46414224167074e-05
20.664,1.52204663026733e-05,3.47352622861338e-05
20.6645,1.52157339614052e-05,3.48307587421416e-05
20.665,1.52108502716047e-05,3.49278918276986e-05
20.6655,1.52058147369349e-05,3.5026641468227e-05
20.666,1.52006268914852e-05,3.5126987476176e-05
20.6665,1.51952862999282e-05,3.52289095555945e-05
20.667,1.51897925576709e-05,3.5332387306705e-05
20.6675,1.51841452909994e-05,3.5437400230476e-05
20.668,1.51783441572176e-05,3.55439277331933e-05
20.6685,1.51723888447796e-05,3.56519491310259e-05
20.669,1.51662790734155e-05,3.57614436545889e-05
20.6695,1.51600145942517e-05,3.5872390453499e-05
20.67,1.51535951899242e-05,3.59847686009236e-05
20.6705,1.51470206746855e-05,3.60985570981206e-05
20.671,1.51402908945057e-05,3.62137348789679e-05
20.6715,1.51334057271663e-05,3.63302808144831e-05
20.672,1.51263650823487e-05,3.64481737173289e-05
20.6725,1.51191689017148e-05,3.65673923463062e-05
20.673,1.51118171589823e-05,3.66879154108309e-05
20.6735,1.51043098599929e-05,3.68097215753958e-05
20.674,1.50966470427741e-05,3.69327894640133e-05
20.6745,1.50888287775946e-05,3.70570976646415e-05
20.675,1.50808551670125e-05,3.71826247335877e-05
20.6755,1.5072726345918e-05,3.73093491998936e-05
20.676,1.50644424815685e-05,3.74372495696959e-05
20.6765,1.50560037736178e-05,3.75663043305649e-05
20.677,1.50474104541385e-05,3.76964919558177e-05
20.6775,1.50386627876371e-05,3.78277909088062e-05
20.678,1.50297610710644e-05,3.79601796471777e-05
20.6785,1.50207056338166e-05,3.80936366271086e-05
20.679,1.50114968377327e-05,3.82281403075077e-05
20.6795,1.50021350770827e-05,3.83636691541907e-05
20.68,1.49926207785512e-05,3.8500201644023e-05
20.6805,1.4982954401213e-05,3.86377162690306e-05
20.681,1.49731364365034e-05,3.8776191540477e-05
20.6815,1.49631674081807e-05,3.89156059929073e-05
20.682,1.49530478722827e-05,3.9055938188156e-05
20.6825,1.49427784170772e-05,3.91971667193192e-05
20.683,1.49323596630046e-05,3.93392702146888e-05
20.6835,1.49217922626153e-05,3.94822273416496e-05
20.684,1.49110769004998e-05,3.96260168105368e-05
20.6845,1.49002142932127e-05,3.9770617378453e-05
20.685,1.48892051891897e-05,3.99160078530449e-05
20.6855,1.48780503686584e-05,4.0062167096238e-05
20.686,1.48667506435432e-05,4.02090740279275e-05
20.6865,1.48553068573623e-05,4.03567076296271e-05
20.687,1.48437198851201e-05,4.05050469480717e-05
20.6875,1.48319906331913e-05,4.06540710987755e-05
20.688,1.48201200392001e-05,4.08037592695438e-05
20.6885,1.48081090718921e-05,4.09540907239368e-05
20.689,1.47959587310007e-05,4.11050448046871e-05
20.6895,1.47836700471056e-05,4.12566009370666e-05
20.69,1.47712440814868e-05,4.14087386322052e-05
20.6905,1.47586819259714e-05,4.15614374903591e-05
20.691,1.47459847027737e-05,4.17146772041279e-05
20.6915,1.47331535643298e-05,4.18684375616206e-05
20.692,1.47201896931259e-05,4.20226984495682e-05
20.6925,1.47070943015196e-05,4.21774398563853e-05
20.693,1.46938686315561e-05,4.2332641875176e-05
20.6935,1.46805139547773e-05,4.24882847066878e-05
20.694,1.46670315720254e-05,4.26443486622089e-05
20.6945,1.46534228132399e-05,4.28008141664121e-05
20.695,1.46396890372484e-05,4.29576617601414e-05
20.6955,1.46258316315526e-05,4.31148721031439e-05
20.696,1.46118520121058e-05,4.32724259767433e-05
20.6965,1.4597751623087e-05,4.34303042864584e-05
20.697,1.45835319366669e-05,4.35884880645619e-05
20.6975,1.45691944527693e-05,4.37469584725828e-05
20.698,1.45547406988259e-05,4.39056968037505e-05
20.6985,1.45401722295247e-05,4.40646844853788e-05
20.699,1.45254906265538e-05,4.42239030811929e-05
20.6995,1.45106974983379e-05,4.43833342935956e-05
20.7,1.44957944797698e-05,4.45429599658745e-05
20.7005,1.44807832319355e-05,4.47027620843501e-05
20.701,1.44656654418343e-05,4.48627227804617e-05
20.7015,1.44504428220917e-05,4.5022824332796e-05
20.702,1.4435117110668e-05,4.51830491690526e-05
20.7025,1.44196900705606e-05,4.53433798679499e-05
20.703,1.44041634894997e-05,4.55037991610705e-05
20.7035,1.438853917964e-05,4.56642899346449e-05
20.704,1.43728189772453e-05,4.58248352312747e-05
20.7045,1.43570047423684e-05,4.59854182515939e-05
20.705,1.43410983585245e-05,4.61460223558701e-05
20.7055,1.43251017323602e-05,4.63066310655437e-05
20.706,1.4309016793316e-05,4.64672280647055e-05
20.7065,1.42928454932835e-05,4.6627797201514e-05
20.707,1.42765898062579e-05,4.67883224895508e-05
20.7075,1.42602517279839e-05,4.69487881091152e-05
20.708,1.42438332755972e-05,4.7109178408457e-05
20.7085,1.42273364872604e-05,4.72694779049498e-05
20.709,1.42107634217934e-05,4.74296712862013e-05
20.7095,1.41941161582987e-05,4.75897434111049e-05
20.71,1.41773967957819e-05,4.77496793108295e-05
20.7105,1.41606074527664e-05,4.79094641897492e-05
20.711,1.41437502669039e-05,4.80690834263131e-05
20.7115,1.41268273945788e-05,4.82285225738552e-05
20.712,1.41098410105086e-05,4.83877673613434e-05
20.7125,1.40927933073392e-05,4.85468036940718e-05
20.713,1.40756864952347e-05,4.87056176542904e-05
20.7135,1.40585228014637e-05,4.88641955017793e-05
20.714,1.40413044699793e-05,4.90225236743624e-05
20.7145,1.40240337609961e-05,4.91805887883638e-05
20.715,1.40067129505614e-05,4.93383776390071e-05
20.7155,1.39893443301224e-05,4.94958772007564e-05
20.716,1.39719302060889e-05,4.96530746276012e-05
20.7165,1.39544728993917e-05,4.98099572532856e-05
20.717,1.39369747450366e-05,4.99665125914806e-05
20.7175,1.3919438091654e-05,5.0122728335902e-05
20.718,1.39018653010449e-05,5.02785923603729e-05
20.7185,1.38842587477221e-05,5.04340927188327e-05
20.719,1.3866620818448e-05,5.05892176452922e-05
20.7195,1.38489539117678e-05,5.07439555537353e-05
20.72,1.38312604375398e-05,5.08982950379691e-05
20.7205,1.38135428164607e-05,5.10522248714214e-05
20.721,1.37958034795884e-05,5.12057340068876e-05
20.7215,1.37780448678599e-05,5.13588115762266e-05
20.722,1.3760269431607e-05,5.15114468900075e-05
20.7225,1.3742479630067e-05,5.16636294371067e-05
20.723,1.37246779308914e-05,5.18153488842569e-05
20.7235,1.37068668096504e-05,5.19665950755482e-05
20.724,1.36890487493341e-05,5.21173580318823e-05
20.7245,1.36712262398514e-05,5.22676279503807e-05
20.725,1.36534017775242e-05,5.24173952037472e-05
20.7255,1.36355778645806e-05,5.25666503395864e-05
20.726,1.36177570086432e-05,5.27153840796781e-05
20.7265,1.35999417222159e-05,5.28635873192077e-05
20.727,1.35821345221674e-05,5.30112511259565e-05
20.7275,1.35643379292118e-05,5.31583667394488e-05
20.728,1.35465544673871e-05,5.33049255700598e-05
20.7285,1.35287866635309e-05,5.34509191980828e-05
20.729,1.35110370467536e-05,5.35963393727587e-05
20.7295,1.34933081479095e-05,5.37411780112662e-05
20.73,1.34756024990656e-05,5.38854271976765e-05
20.7305,1.3457922632968e-05,5.40290791818707e-05
20.731,1.34402710825068e-05,5.41721263784215e-05
20.7315,1.34226503801787e-05,5.43145613654422e-05
20.732,1.34050630575478e-05,5.44563768833998e-05
20.7325,1.33875116447049e-05,5.45975658338969e-05
20.733,1.33699986697249e-05,5.47381212784211e-05
20.7335,1.33525266581232e-05,5.48780364370632e-05
20.734,1.33350981323099e-05,5.50173046872061e-05
20.7345,1.33177156110437e-05,5.51559195621833e-05
20.735,1.3300381608884e-05,5.529387474991e-05
20.7355,1.32830986356422e-05,5.54311640914858e-05
20.736,1.32658691958318e-05,5.55677815797717e-05
20.7365,1.32486957881184e-05,5.5703721357941e-05
20.737,1.32315809047682e-05,5.58389777180048e-05
20.7375,1.32145270310965e-05,5.59735450993148e-05
20.738,1.31975366449156e-05,5.6107418087042e-05
20.7385,1.31806122159823e-05,5.62405914106335e-05
20.739,1.31637562054454e-05,5.63730599422487e-05
20.7395,1.31469710652935e-05,5.65048186951739e-05
20.74,1.3130259237802e-05,5.6635862822218e-05
20.7405,1.31136231549813e-05,5.67661876140896e-05
20.741,1.30970652380249e-05,5.68957884977566e-05
20.7415,1.30805878967582e-05,5.70246610347875e-05
20.742,1.30641935290879e-05,5.71528009196779e-05
20.7425,1.30478845204527e-05,5.72802039781615e-05
20.743,1.30316632432741e-05,5.74068661655054e-05
20.7435,1.30155320564091e-05,5.75327835647937e-05
20.744,1.29994933046042e-05,5.76579523851969e-05
20.7445,1.29835493179506e-05,5.77823689602294e-05
20.745,1.29677024113409e-05,5.79060297459965e-05
20.7455,1.29519548839283e-05,5.80289313194305e-05
20.746,1.29363090185868e-05,5.81510703765175e-05
20.7465,1.29207670813744e-05,5.82724437305149e-05
20.747,1.2905331320998e-05,5.83930483101622e-05
20.7475,1.28900039682812e-05,5.8512881157883e-05
20.748,1.28747872356343e-05,5.86319394279822e-05
20.7485,1.28596833165274e-05,5.87502203848369e-05
20.749,1.28446943849665e-05,5.88677214010822e-05
20.7495,1.28298225949722e-05,5.89844399557941e-05
20.75,1.28150700800624e-05,5.91003736326683e-05
20.7505,1.2800438952738e-05,5.92155201181972e-05
20.751,1.27859313039726e-05,5.9329877199845e-05
20.7515,1.27715492027052e-05,5.94434427642217e-05
20.752,1.2757294695338e-05,5.95562147952582e-05
20.7525,1.27431698052373e-05,5.9668191372381e-05
20.753,1.27291765322392e-05,5.97793706686879e-05
20.7535,1.27153168521597e-05,5.98897509491278e-05
20.754,1.27015927163092e-05,5.99993305686819e-05
20.7545,1.26880060510119e-05,6.0108107970549e-05
20.755,1.267455875713e-05,6.02160816843349e-05
20.7555,1.26612527095934e-05,6.03232503242475e-05
20.756,1.26480897569335e-05,6.04296125872972e-05
20.7565,1.26350717208238e-05,6.05351672515035e-05
20.757,1.2622200395625e-05,6.06399131741101e-05
20.7575,1.26094775479358e-05,6.07438492898048e-05
20.758,1.25969049161502e-05,6.08469746089514e-05
20.7585,1.25844842100201e-05,6.09492882158275e-05
20.759,1.25722171102237e-05,6.10507892668741e-05
20.7595,1.25601052679413e-05,6.11514769889529e-05
20.76,1.25481503044359e-05,6.12513506776173e-05
20.7605,1.25363538106415e-05,6.13504096953918e-05
20.761,1.25247173467576e-05,6.14486534700646e-05
20.7615,1.25132424418497e-05,6.15460814929928e-05
20.762,1.25019305934581e-05,6.16426933174189e-05
20.7625,1.24907832672123e-05,6.17384885568019e-05
20.763,1.24798018964531e-05,6.18334668831616e-05
20.7635,1.24689878818618e-05,6.1927628025437e-05
20.764,1.24583425910969e-05,6.20209717678594e-05
20.7645,1.24478673584376e-05,6.21134979483404e-05
20.765,1.24375634844356e-05,6.22052064568757e-05
20.7655,1.24274322355738e-05,6.22960972339647e-05
20.766,1.24174748439333e-05,6.23861702690452e-05
20.7665,1.24076925068676e-05,6.24754255989469e-05
20.767,1.23980863866853e-05,6.256386330636e-05
20.7675,1.23886576103405e-05,6.2651483518322e-05
20.768,1.2379407269131e-05,6.27382864047213e-05
20.7685,1.23703364184054e-05,6.28242721768203e-05
20.769,1.23614460772777e-05,6.29094410857956e-05
20.7695,1.23527372283505e-05,6.29937934212969e-05
20.77,1.23442108174468e-05,6.3077329510025e-05
20.7705,1.23358677533501e-05,6.31600497143294e-05
20.771,1.23277089075529e-05,6.32419544308246e-05
20.7715,1.23197351140141e-05,6.33230440890268e-05
20.772,1.23119471689252e-05,6.34033191500094e-05
20.7725,1.23043458304846e-05,6.34827801050814e-05
20.773,1.22969318186815e-05,6.35614274744825e-05
20.7735,1.22897058150884e-05,6.36392618061025e-05
20.774,1.22826684626625e-05,6.37162836742193e-05
20.7745,1.22758203655561e-05,6.37924936782599e-05
20.775,1.22691620889363e-05,6.3867892441581e-05
20.7755,1.22626941588136e-05,6.39424806102732e-05
20.776,1.22564170618798e-05,6.40162588519864e-05
20.7765,1.22503312453555e-05,6.4089227854776e-05
20.777,1.2244437116846e-05,6.41613883259748e-05
20.7775,1.22387350442075e-05,6.42327409910832e-05
20.778,1.22332253554223e-05,6.43032865926866e-05
20.7785,1.22279083384835e-05,6.43730258893923e-05
20.779,1.22227842412892e-05,6.44419596547919e-05
20.7795,1.22178532715463e-05,6.45100886764461e-05
20.78,1.22131155966836e-05,6.45774137548932e-05
20.7805,1.22085713437755e-05,6.46439357026825e-05
20.781,1.22042205994739e-05,6.47096553434304e-05
20.7815,1.2200063409951e-05,6.47745735109014e-05
20.782,1.21960997808516e-05,6.48386910481134e-05
20.7825,1.21923296772548e-05,6.49020088064689e-05
20.783,1.21887530236457e-05,6.49645276449079e-05
20.7835,1.21853697038976e-05,6.50262484290899e-05
20.784,1.21821795612627e-05,6.50871720305975e-05
20.7845,1.21791823983743e-05,6.5147299326167e-05
20.785,1.21763779772574e-05,6.52066311969447e-05
20.7855,1.21737660193507e-05,6.52651685277674e-05
20.786,1.21713462055374e-05,6.53229122064702e-05
20.7865,1.21691181761865e-05,6.53798631232186e-05
20.787,1.2167081531204e-05,6.54360221698672e-05
20.7875,1.21652358300943e-05,6.54913902393437e-05
20.788,1.21635805920311e-05,6.55459682250605e-05
20.7885,1.21621152959388e-05,6.55997570203498e-05
20.789,1.21608393805837e-05,6.56527575179267e-05
20.7895,1.21597522446751e-05,6.57049706093767e-05
20.79,1.21588532469765e-05,6.57563971846716e-05
20.7905,1.21581417064267e-05,6.58070381317078e-05
20.791,1.21576169022712e-05,6.58568943358743e-05
20.7915,1.21572780742027e-05,6.59059666796433e-05
20.792,1.2157124422513e-05,6.5954256042189e-05
20.7925,1.2157155108253e-05,6.60017632990306e-05
20.793,1.21573692534042e-05,6.60484893217017e-05
20.7935,1.2157765941059e-05,6.60944349774444e-05
20.794,1.21583442156114e-05,6.61396011289301e-05
20.7945,1.21591030829573e-05,6.61839886340036e-05
20.795,1.21600415107043e-05,6.62275983454541e-05
20.7955,1.21611584283918e-05,6.627043111081e-05
20.796,1.21624527277202e-05,6.63124877721589e-05
20.7965,1.21639232627899e-05,6.63537691659914e-05
20.797,1.21655688503498e-05,6.63942761230705e-05
20.7975,1.21673882700554e-05,6.64340094683242e-05
20.798,1.21693802647358e-05,6.64729700207613e-05
20.7985,1.21715435406709e-05,6.65111585934129e-05
20.799,1.21738767678771e-05,6.65485759932946e-05
20.7995,1.21763785804022e-05,6.65852230213943e-05
20.8,1.217904757663e-05,6.66211004726809e-05
20.8005,1.21818823195929e-05,6.66562091361364e-05
20.801,1.21848813372948e-05,6.66905497948094e-05
20.8015,1.2188043123041e-05,6.6724123225892e-05
20.802,1.21913661357788e-05,6.67569302008158e-05
20.8025,1.21948488004449e-05,6.67889714853708e-05
20.803,1.21984895083226e-05,6.68202478398447e-05
20.8035,1.2202286617407e-05,6.68507600191817e-05
20.804,1.22062384527782e-05,6.68805087731619e-05
20.8045,1.2210343306983e-05,6.69094948466002e-05
20.805,1.22145994404249e-05,6.69377189795637e-05
20.8055,1.22190050817618e-05,6.69651819076081e-05
20.806,1.22235584283111e-05,6.69918843620324e-05
20.8065,1.22282576464638e-05,6.70178270701503e-05
20.807,1.22331008721051e-05,6.70430107555802e-05
20.8075,1.22380862110429e-05,6.70674361385508e-05
20.808,1.22432117394437e-05,6.70911039362233e-05
20.8085,1.22484755042761e-05,6.71140148630294e-05
20.809,1.22538755237607e-05,6.71361696310248e-05
20.8095,1.22594097878278e-05,6.71575689502566e-05
20.81,1.22650762585814e-05,6.71782135291459e-05
20.8105,1.22708728707706e-05,6.71981040748844e-05
20.811,1.22767975322668e-05,6.72172412938434e-05
20.8115,1.22828481245485e-05,6.72356258919958e-05
20.812,1.22890225031912e-05,6.72532585753515e-05
20.8125,1.22953184983648e-05,6.72701400504035e-05
20.813,1.23017339153363e-05,6.72862710245865e-05
20.8135,1.23082665349784e-05,6.73016522067455e-05
20.814,1.23149141142849e-05,6.73162843076145e-05
20.8145,1.23216743868905e-05,6.73301680403076e-05
20.815,1.23285450635971e-05,6.73433041208164e-05
20.8155,1.23355238329053e-05,6.73556932685188e-05
20.816,1.23426083615509e-05,6.73673362066953e-05
20.8165,1.23497962950467e-05,6.73782336630532e-05
20.817,1.23570852582296e-05,6.73883863702589e-05
20.8175,1.23644728558118e-05,6.73977950664778e-05
20.818,1.23719566729378e-05,6.74064604959187e-05
20.8185,1.23795342757448e-05,6.74143834093869e-05
20.819,1.23872032119283e-05,6.7421564564841e-05
20.8195,1.23949610113115e-05,6.74280047279559e-05
20.82,1.24028051864196e-05,6.74337046726902e-05
20.8205,1.24107332330567e-05,6.74386651818567e-05
20.821,1.24187426308879e-05,6.74428870476988e-05
20.8215,1.24268308440246e-05,6.7446371072468e-05
20.822,1.24349953216127e-05,6.74491180690048e-05
20.8225,1.24432334984256e-05,6.74511288613225e-05
20.823,1.24515427954591e-05,6.74524042851913e-05
20.8235,1.24599206205301e-05,6.74529451887253e-05
20.824,1.24683643688782e-05,6.74527524329689e-05
20.8245,1.24768714237704e-05,6.74518268924848e-05
20.825,1.24854391571079e-05,6.74501694559403e-05
20.8255,1.24940649300359e-05,6.74477810266949e-05
20.826,1.25027460935559e-05,6.74446625233844e-05
20.8265,1.25114799891403e-05,6.74408148805061e-05
20.827,1.25202639493488e-05,6.74362390489999e-05
20.8275,1.25290952984475e-05,6.74309359968282e-05
20.828,1.25379713530294e-05,6.74249067095515e-05
20.8285,1.25468894226366e-05,6.74181521909026e-05
20.829,1.2555846810385e-05,6.74106734633547e-05
20.8295,1.25648408135895e-05,6.74024715686868e-05
20.83,1.25738687243911e-05,6.73935475685441e-05
20.8305,1.25829278303855e-05,6.7383902544992e-05
20.831,1.25920154152523e-05,6.73735376010664e-05
20.8315,1.26011287593856e-05,6.73624538613166e-05
20.832,1.26102651405252e-05,6.73506524723415e-05
20.8325,1.26194218343889e-05,6.73381346033209e-05
20.833,1.26285961153051e-05,6.73249014465364e-05
20.8335,1.2637785256846e-05,6.7310954217888e-05
20.834,1.26469865324612e-05,6.72962941573999e-05
20.8345,1.26561972161116e-05,6.72809225297192e-05
20.835,1.26654145829031e-05,6.72648406246055e-05
20.8355,1.26746359097207e-05,6.72480497574113e-05
20.836,1.26838584758619e-05,6.72305512695529e-05
20.8365,1.26930795636707e-05,6.72123465289704e-05
20.837,1.27022964591698e-05,6.71934369305795e-05
20.8375,1.27115064526936e-05,6.71738238967102e-05
20.838,1.272070683952e-05,6.71535088775367e-05
20.8385,1.27298949205008e-05,6.71324933514948e-05
20.839,1.27390680026924e-05,6.71107788256878e-05
20.8395,1.27482233999839e-05,6.70883668362814e-05
20.84,1.27573584337256e-05,6.70652589488857e-05
20.8405,1.27664704333546e-05,6.70414567589248e-05
20.841,1.27755567370201e-05,6.70169618919943e-05
20.8415,1.27846146922065e-05,6.69917760042056e-05
20.842,1.27936416563547e-05,6.69659007825171e-05
20.8425,1.28026349974817e-05,6.6939337945052e-05
20.843,1.28115920947984e-05,6.69120892414032e-05
20.8435,1.28205103393244e-05,6.68841564529234e-05
20.844,1.28293871345017e-05,6.6855541393002e-05
20.8445,1.28382198968048e-05,6.68262459073281e-05
20.845,1.28470060563492e-05,6.67962718741393e-05
20.8455,1.28557430574962e-05,6.67656212044555e-05
20.846,1.28644283594557e-05,6.67342958422986e-05
20.8465,1.28730594368858e-05,6.67022977648981e-05
20.847,1.28816337804889e-05,6.66696289828813e-05
20.8475,1.28901488976049e-05,6.66362915404491e-05
20.848,1.2898602312801e-05,6.66022875155369e-05
20.8485,1.29069915684578e-05,6.65676190199601e-05
20.849,1.29153142253521e-05,6.65322881995459e-05
20.8495,1.29235678632352e-05,6.64962972342478e-05
20.85,1.29317500814081e-05,6.64596483382476e-05
20.8505,1.29398584992922e-05,6.64223437600402e-05
20.851,1.29478907569959e-05,6.63843857825041e-05
20.8515,1.29558445158767e-05,6.63457767229568e-05
20.852,1.29637174590993e-05,6.6306518933195e-05
20.8525,1.29715072921884e-05,6.62666147995188e-05
20.853,1.29792117435778e-05,6.62260667427417e-05
20.8535,1.29868285651538e-05,6.61848772181855e-05
20.854,1.29943555327937e-05,6.61430487156587e-05
20.8545,1.30017904468998e-05,6.61005837594221e-05
20.855,1.30091311329274e-05,6.60574849081368e-05
20.8555,1.30163754419082e-05,6.60137547547992e-05
20.856,1.30235212509677e-05,6.5969395926661e-05
20.8565,1.30305664638367e-05,6.59244110851324e-05
20.857,1.30375090113582e-05,6.58788029256738e-05
20.8575,1.30443468519871e-05,6.58325741776699e-05
20.858,1.30510779722847e-05,6.57857276042915e-05
20.8585,1.3057700387407e-05,6.57382660023417e-05
20.859,1.30642121415863e-05,6.5690192202089e-05
20.8595,1.30706113086069e-05,6.56415090670846e-05
20.86,1.30768959922743e-05,6.55922194939684e-05
20.8605,1.30830643268773e-05,6.55423264122592e-05
20.861,1.30891144776437e-05,6.54918327841318e-05
20.8615,1.30950446411894e-05,6.54407416041822e-05
20.862,1.31008530459597e-05,6.53890558991777e-05
20.8625,1.31065379526645e-05,6.53367787277953e-05
20.863,1.31120976547054e-05,6.52839131803477e-05
20.8635,1.3117530478596e-05,6.52304623784959e-05
20.864,1.31228347843745e-05,6.51764294749505e-05
20.8645,1.31280089660088e-05,6.51218176531605e-05
20.865,1.31330514517935e-05,6.50666301269908e-05
20.8655,1.31379607047403e-05,6.50108701403888e-05
20.866,1.31427352229589e-05,6.49545409670381e-05
20.8665,1.31473735400307e-05,6.48976459100041e-05
20.867,1.31518742253747e-05,6.48401883013664e-05
20.8675,1.31562358846044e-05,6.4782171501843e-05
20.868,1.31604571598767e-05,6.47235989004034e-05
20.8685,1.31645367302325e-05,6.4664473913873e-05
20.869,1.31684733119284e-05,6.46047999865269e-05
20.8695,1.31722656587599e-05,6.45445805896768e-05
20.87,1.31759125623764e-05,6.4483819221247e-05
20.8705,1.3179412852586e-05,6.4422519405344e-05
20.871,1.31827653976526e-05,6.43606846918177e-05
20.8715,1.31859691045838e-05,6.42983186558136e-05
20.872,1.3189022919409e-05,6.42354248973204e-05
20.8725,1.31919258274489e-05,6.41720070407089e-05
20.873,1.31946768535755e-05,6.4108068734265e-05
20.8735,1.31972750624626e-05,6.40436136497164e-05
20.874,1.31997195588273e-05,6.39786454817547e-05
20.8745,1.32020094876614e-05,6.39131679475503e-05
20.875,1.32041440344535e-05,6.38471847862646e-05
20.8755,1.32061224254013e-05,6.37806997585559e-05
20.876,1.32079439276144e-05,6.37137166460825e-05
20.8765,1.32096078493067e-05,6.36462392510016e-05
20.877,1.321111353998e-05,6.35782713954648e-05
20.8775,1.32124603905964e-05,6.35098169211123e-05
20.878,1.32136478337415e-05,6.34408796885615e-05
20.8785,1.32146753437773e-05,6.33714635768977e-05
20.879,1.32155424369854e-05,6.33015724831604e-05
20.8795,1.32162486716994e-05,6.32312103218298e-05
20.88,1.32167936484274e-05,6.31603810243116e-05
20.8805,1.32171770099648e-05,6.30890885384233e-05
20.881,1.32173984414961e-05,6.30173368278787e-05
20.8815,1.32174576706865e-05,6.29451298717747e-05
20.882,1.32173544677638e-05,6.28724716640771e-05
20.8825,1.32170886455896e-05,6.27993662131104e-05
20.883,1.32166600597198e-05,6.27258175410469e-05
20.8835,1.32160686084552e-05,6.26518296833999e-05
20.884,1.32153142328815e-05,6.25774066885178e-05
20.8845,1.32143969168992e-05,6.25025526170831e-05
20.885,1.32133166872426e-05,6.24272715416126e-05
20.8855,1.32120736134886e-05,6.23515675459637e-05
20.886,1.32106678080552e-05,6.22754447248422e-05
20.8865,1.32090994261896e-05,6.21989071833174e-05
20.887,1.32073686659456e-05,6.21219590363405e-05
20.8875,1.32054757681508e-05,6.20446044082679e-05
20.888,1.32034210163636e-05,6.19668474323913e-05
20.8885,1.32012047368192e-05,6.18886922504735e-05
20.889,1.31988272983661e-05,6.18101430122904e-05
20.8895,1.31962891123914e-05,6.17312038751793e-05
20.89,1.31935906327365e-05,6.16518790035963e-05
20.8905,1.31907323556021e-05,6.15721725686776e-05
20.891,1.31877148194427e-05,6.14920887478131e-05
20.8915,1.3184538604852e-05,6.14116317242236e-05
20.892,1.31812043344365e-05,6.13308056865502e-05
20.8925,1.31777126726802e-05,6.12496148284501e-05
20.893,1.3174064325799e-05,6.11680633482026e-05
20.8935,1.31702600415843e-05,6.1086155448323e-05
20.894,1.31663006092374e-05,6.10038953351881e-05
20.8945,1.31621868591938e-05,6.09212872186692e-05
20.895,1.31579196629372e-05,6.08383353117772e-05
20.8955,1.31534999328041e-05,6.07550438303154e-05
20.896,1.31489286217786e-05,6.06714169925453e-05
20.8965,1.3144206723277e-05,6.05874590188605e-05
20.897,1.31393352709234e-05,6.05031741314724e-05
20.8975,1.31343153383155e-05,6.04185665541066e-05
20.898,1.31291480387807e-05,6.03336405117087e-05
20.8985,1.31238345251232e-05,6.02484002301635e-05
20.899,1.31183759893615e-05,6.01628499360222e-05
20.8995,1.31127736624565e-05,6.00769938562418e-05
20.9,1.31070288140311e-05,5.99908362179363e-05
20.9005,1.31011427520801e-05,5.99043812481372e-05
20.901,1.30951168226714e-05,5.98176331735659e-05
20.9015,1.30889524096385e-05,5.97305962204159e-05
20.902,1.30826509342638e-05,5.96432746141472e-05
20.9025,1.30762138549538e-05,5.95556725792905e-05
20.903,1.30696426669054e-05,5.94677943392618e-05
20.9035,1.30629389017638e-05,5.93796441161881e-05
20.904,1.30561041272722e-05,5.92912261307435e-05
20.9045,1.30491399469135e-05,5.92025446019949e-05
20.905,1.30420479995432e-05,5.91136037472585e-05
20.9055,1.30348299590152e-05,5.90244077819657e-05
20.906,1.30274875337995e-05,5.8934960919539e-05
20.9065,1.3020022466592e-05,5.88452673712781e-05
20.907,1.30124365339167e-05,5.87553313462536e-05
20.9075,1.30047315457212e-05,5.86651570512118e-05
20.908,1.29969093449639e-05,5.85747486904874e-05
20.9085,1.29889718071951e-05,5.84841104659246e-05
20.909,1.29809208401303e-05,5.83932465768077e-05
20.9095,1.29727583832169e-05,5.83021612197985e-05
20.91,1.29644864071949e-05,5.82108585888826e-05
20.9105,1.29561069136498e-05,5.81193428753226e-05
20.911,1.29476219345604e-05,5.8027618267619e-05
20.9115,1.29390335318394e-05,5.79356889514773e-05
20.912,1.29303437968688e-05,5.78435591097828e-05
20.9125,1.29215548500283e-05,5.77512329225804e-05
20.913,1.29126688402193e-05,5.76587145670611e-05
20.9135,1.29036879443821e-05,5.75660082175536e-05
20.914,1.28946143670082e-05,5.74731180455213e-05
20.9145,1.28854503396474e-05,5.73800482195635e-05
20.915,1.28761981204097e-05,5.72868029054217e-05
20.9155,1.28668599934617e-05,5.71933862659893e-05
20.916,1.28574382685195e-05,5.70998024613245e-05
20.9165,1.28479352803355e-05,5.70060556486673e-05
20.917,1.28383533881814e-05,5.69121499824578e-05
20.9175,1.28286949753273e-05,5.68180896143581e-05
20.918,1.28189624485158e-05,5.6723878693275e-05
20.9185,1.28091582374328e-05,5.66295213653839e-05
20.919,1.2799284794174e-05,5.65350217741548e-05
20.9195,1.2789344592708e-05,5.64403840603776e-05
20.92,1.27793401283358e-05,5.63456123621877e-05
20.9205,1.27692739171472e-05,5.62507108150913e-05
20.921,1.27591484954734e-05,5.61556835519901e-05
20.9215,1.27489664193372e-05,5.60605347032044e-05
20.922,1.27387302638999e-05,5.59652683964941e-05
20.9225,1.27284426229055e-05,5.58698887570783e-05
20.923,1.27181061081229e-05,5.57743999076522e-05
20.9235,1.27077233487844e-05,5.56788059684007e-05
20.924,1.26972969910231e-05,5.55831110570081e-05
20.9245,1.26868296973076e-05,5.54873192886663e-05
20.925,1.26763241458748e-05,5.53914347760754e-05
20.9255,1.26657830301605e-05,5.52954616294427e-05
20.926,1.26552090582287e-05,5.51994039564752e-05
20.9265,1.26446049521991e-05,5.51032658623669e-05
20.927,1.26339734476729e-05,5.50070514497801e-05
20.9275,1.26233172931577e-05,5.49107648188219e-05
20.928,1.26126392494905e-05,5.48144100670123e-05
20.9285,1.260194208926e-05,5.47179912892467e-05
20.929,1.25912285962284e-05,5.46215125777507e-05
20.9295,1.25805015647508e-05,5.45249780220271e-05
20.93,1.25697637991958e-05,5.44283917087958e-05
20.9305,1.25590181133636e-05,5.43317577219247e-05
20.931,1.25482673299048e-05,5.42350801423513e-05
20.9315,1.25375142797387e-05,5.41383630479983e-05
20.932,1.25267618014703e-05,5.40416105136762e-05
20.9325,1.25160127408081e-05,5.39448266109796e-05
20.933,1.25052699499815e-05,5.38480154081723e-05
20.9335,1.24945362871582e-05,5.37511809700624e-05
20.934,1.24838146158614e-05,5.36543273578686e-05
20.9345,1.24731078043879e-05,5.35574586290741e-05
20.935,1.24624187252255e-05,5.34605788372719e-05
20.9355,1.24517502544721e-05,5.33636920319978e-05
20.936,1.24411052712539e-05,5.32668022585538e-05
20.9365,1.24304866571455e-05,5.31699135578194e-05
20.937,1.24198972955896e-05,5.30730299660519e-05
20.9375,1.24093400713184e-05,5.29761555146763e-05
20.938,1.23988178697748e-05,5.28792942300621e-05
20.9385,1.2388333576536e-05,5.27824501332904e-05
20.939,1.23778900767368e-05,5.26856272399081e-05
20.9395,1.23674902544945e-05,5.2588829559671e-05
20.94,1.23571369923357e-05,5.24920610962751e-05
20.9405,1.23468331706234e-05,5.23953258470764e-05
20.941,1.2336581666986e-05,5.2298627802799e-05
20.9415,1.23263853557479e-05,5.22019709472307e-05
20.942,1.23162471073614e-05,5.21053592569085e-05
20.9425,1.23061697878406e-05,5.20087967007906e-05
20.943,1.22961562581967e-05,5.19122872399185e-05
20.9435,1.22862093738753e-05,5.18158348270661e-05
20.944,1.22763319841957e-05,5.17194434063785e-05
20.9445,1.22665269317924e-05,5.16231169129984e-05
20.945,1.22567970520582e-05,5.1526859272682e-05
20.9455,1.22471451725895e-05,5.14306744014035e-05
20.946,1.22375741126349e-05,5.13345662049475e-05
20.9465,1.22280866825446e-05,5.12385385784928e-05
20.947,1.22186856832235e-05,5.11425954061826e-05
20.9475,1.22093739055858e-05,5.10467405606861e-05
20.948,1.22001541300134e-05,5.0950977902749e-05
20.9485,1.21910291258157e-05,5.08553112807329e-05
20.949,1.21820016506928e-05,5.07597445301465e-05
20.9495,1.21730744502019e-05,5.06642814731649e-05
20.95,1.21642502572255e-05,5.05689259181403e-05
20.9505,1.21555317914441e-05,5.04736816591036e-05
20.951,1.21469217588102e-05,5.03785524752558e-05
20.9515,1.21384228510276e-05,5.02835421304516e-05
20.952,1.21300377450317e-05,5.01886543726737e-05
20.9525,1.21217691024748e-05,5.00938929334993e-05
20.953,1.21136195692141e-05,4.99992615275578e-05
20.9535,1.21055917748031e-05,4.9904763851982e-05
20.954,1.2097688331987e-05,4.9810403585851e-05
20.9545,1.20899118362011e-05,4.97161843896264e-05
20.955,1.20822648650735e-05,4.96221099045824e-05
20.9555,1.20747499779313e-05,4.95281837522282e-05
20.956,1.20673697153106e-05,4.94344095337267e-05
20.9565,1.20601265984702e-05,4.93407908293053e-05
20.957,1.20530231289103e-05,4.92473311976635e-05
20.9575,1.20460617878935e-05,4.9154034175375e-05
20.958,1.20392450359717e-05,4.90609032762852e-05
20.9585,1.2032575312516e-05,4.89679419909055e-05
20.959,1.20260550352514e-05,4.88751537858044e-05
20.9595,1.20196865997956e-05,4.87825421029949e-05
20.96,1.20134723792021e-05,4.86901103593194e-05
20.9605,1.20074147235078e-05,4.85978619458339e-05
20.961,1.20015159592854e-05,4.85058002271892e-05
20.9615,1.19957783891996e-05,4.84139285410118e-05
20.962,1.19902042915689e-05,4.83222501972839e-05
20.9625,1.19847959199309e-05,4.82307684777241e-05
20.963,1.19795555026132e-05,4.81394866351673e-05
20.9635,1.19744852423087e-05,4.8048407892947e-05
20.964,1.19695873156556e-05,4.79575354442778e-05
20.9645,1.19648638728224e-05,4.78668724516407e-05
20.965,1.19603170370981e-05,4.77764220461709e-05
20.9655,1.19559489044863e-05,4.76861873270483e-05
20.966,1.19517615433055e-05,4.75961713608911e-05
20.9665,1.19477569937939e-05,4.75063771811551e-05
20.967,1.19439372677192e-05,4.74168077875356e-05
20.9675,1.19403043479933e-05,4.73274661453764e-05
20.968,1.19368601882931e-05,4.72383551850825e-05
20.9685,1.19336067126851e-05,4.7149477801541e-05
20.969,1.19305458152567e-05,4.70608368535472e-05
20.9695,1.19276793597515e-05,4.69724351632386e-05
20.97,1.19250091792108e-05,4.68842755155373e-05
20.9705,1.19225370756198e-05,4.67963606575995e-05
20.971,1.19202648195599e-05,4.67086932982751e-05
20.9715,1.19181941498657e-05,4.66212761075762e-05
20.972,1.19163267732882e-05,4.65341117161555e-05
20.9725,1.19146643641626e-05,4.64472027147954e-05
20.973,1.19132085640825e-05,4.63605516539082e-05
20.9735,1.19119609815793e-05,4.62741610430474e-05
20.974,1.19109231918075e-05,4.61880333504313e-05
20.9745,1.19100967362353e-05,4.61021710024797e-05
20.975,1.19094831223411e-05,4.60165763833619e-05
20.9755,1.19090838233161e-05,4.59312518345603e-05
20.976,1.19089002777723e-05,4.58461996544463e-05
20.9765,1.19089338894567e-05,4.57614220978718e-05
20.977,1.1909186026971e-05,4.56769213757739e-05
20.9775,1.19096580234981e-05,4.55926996547975e-05
20.978,1.19103511765336e-05,4.5508759056931e-05
20.9785,1.19112667476242e-05,4.54251016591599e-05
20.979,1.19124059621115e-05,4.53417294931364e-05
20.9795,1.19137700088832e-05,4.52586445448662e-05
20.98,1.19153600401287e-05,4.51758487544132e-05
20.9805,1.19171771711028e-05,4.5093344015621e-05
20.981,1.19192224798942e-05,4.50111321758538e-05
20.9815,1.19214970072018e-05,4.49292150357559e-05
20.982,1.19240017561159e-05,4.48475943490298e-05
20.9825,1.1926737691907e-05,4.47662718222342e-05
20.983,1.19297057418206e-05,4.46852491146019e-05
20.9835,1.19329067948786e-05,4.46045278378779e-05
20.984,1.19363417016875e-05,4.45241095561776e-05
20.9845,1.19400112742526e-05,4.44439957858669e-05
20.985,1.19439162857998e-05,4.4364187995463e-05
20.9855,1.1948057470603e-05,4.42846876055562e-05
20.986,1.19524355238196e-05,4.42054959887544e-05
20.9865,1.19570511013312e-05,4.41266144696496e-05
20.987,1.19619048195924e-05,4.40480443248058e-05
20.9875,1.19669972554857e-05,4.39697867827711e-05
20.988,1.19723289461836e-05,4.38918430241109e-05
20.9885,1.19779003890176e-05,4.38142141814659e-05
20.989,1.19837120413537e-05,4.37369013396316e-05
20.9895,1.19897643204757e-05,4.36599055356629e-05
20.99,1.19960576034744e-05,4.35832277590019e-05
20.9905,1.20025922271448e-05,4.35068689516285e-05
20.991,1.20093684878899e-05,4.34308300082372e-05
20.9915,1.20163866416313e-05,4.33551117764361e-05
20.992,1.20236469037275e-05,4.32797150569718e-05
20.9925,1.20311494488984e-05,4.32046406039781e-05
20.993,1.20388944111584e-05,4.31298891252498e-05
20.9935,1.20468818837546e-05,4.30554612825405e-05
20.994,1.20551119191139e-05,4.29813576918875e-05
20.9945,1.20635845287966e-05,4.29075789239592e-05
20.995,1.20722996834568e-05,4.28341255044293e-05
20.9955,1.20812573128102e-05,4.27609979143758e-05
20.996,1.20904573056099e-05,4.26881965907052e-05
20.9965,1.20998995096278e-05,4.26157219266028e-05
20.997,1.21095837316445e-05,4.25435742720067e-05
20.9975,1.21195097374459e-05,4.24717539341097e-05
20.998,1.21296772518269e-05,4.24002611778837e-05
20.9985,1.21400859586023e-05,4.23290962266321e-05
20.999,1.21507355006252e-05,4.22582592625657e-05
20.9995,1.21616254798125e-05,4.2187750427405e-05
21,1.21727554571769e-05,4.21175698230064e-05
21.0005,1.21841249528672e-05,4.2047717512015e-05
21.001,1.21957334462148e-05,4.19781935185413e-05
21.0015,1.22075803757882e-05,4.19089978288627e-05
21.002,1.22196651394536e-05,4.18401303921504e-05
21.0025,1.2231987094444e-05,4.17715911212203e-05
21.003,1.22445455574339e-05,4.1703379893308e-05
21.0035,1.22573398046224e-05,4.16354965508684e-05
21.004,1.22703690718226e-05,4.15679409023989e-05
21.0045,1.22836325545585e-05,4.15007127232862e-05
21.005,1.22971294081687e-05,4.14338117566769e-05
21.0055,1.23108587479171e-05,4.13672377143704e-05
21.006,1.23248196491107e-05,4.13009902777357e-05
21.0065,1.23390111472249e-05,4.12350690986495e-05
21.007,1.23534322380342e-05,4.11694738004577e-05
21.0075,1.23680818777521e-05,4.11042039789577e-05
21.008,1.23829589831758e-05,4.10392592034029e-05
21.0085,1.23980624318392e-05,4.09746390175277e-05
21.009,1.24133910621719e-05,4.09103429405939e-05
21.0095,1.24289436736655e-05,4.08463704684569e-05
21.01,1.24447190270468e-05,4.07827210746518e-05
21.0105,1.24607158444572e-05,4.07193942114994e-05
21.011,1.2476932809639e-05,4.06563893112303e-05
21.0115,1.24933685681293e-05,4.05937057871288e-05
21.012,1.2510021727459e-05,4.05313430346937e-05
21.0125,1.25268908573598e-05,4.04693004328173e-05
21.013,1.25439744899767e-05,4.04075773449809e-05
21.0135,1.25612711200882e-05,4.0346173120468e-05
21.014,1.25787792053317e-05,4.02850870955918e-05
21.0145,1.25964971664363e-05,4.02243185949398e-05
21.015,1.26144233874619e-05,4.0163866932632e-05
21.0155,1.26325562160442e-05,4.01037314135943e-05
21.016,1.26508939636463e-05,4.00439113348451e-05
21.0165,1.26694349058166e-05,3.99844059867956e-05
21.017,1.26881772824529e-05,3.99252146545623e-05
21.0175,1.27071192980728e-05,3.98663366192908e-05
21.018,1.27262591220897e-05,3.98077711594927e-05
21.0185,1.27455948890955e-05,3.97495175523914e-05
21.019,1.2765124699149e-05,3.96915750752786e-05
21.0195,1.27848466180702e-05,3.96339430068808e-05
21.02,1.28047586777408e-05,3.95766206287329e-05
21.0205,1.28248588764102e-05,3.95196072265619e-05
21.021,1.28451451790073e-05,3.94629020916764e-05
21.0215,1.28656155174583e-05,3.94065045223631e-05
21.022,1.28862677910101e-05,3.93504138252897e-05
21.0225,1.29070998665592e-05,3.92946293169125e-05
21.023,1.29281095789856e-05,3.92391503248889e-05
21.0235,1.29492947314937e-05,3.91839761894933e-05
21.024,1.29706530959566e-05,3.91291062650363e-05
21.0245,1.29921824132678e-05,3.90745399212863e-05
21.025,1.3013880393696e-05,3.90202765448922e-05
21.0255,1.30357447172472e-05,3.89663155408074e-05
21.026,1.30577730340307e-05,3.89126563337132e-05
21.0265,1.30799629646304e-05,3.88592983694423e-05
21.027,1.3102312100481e-05,3.88062411164001e-05
21.0275,1.31248180042496e-05,3.87534840669843e-05
21.028,1.31474782102219e-05,3.87010267390004e-05
21.0285,1.31702902246927e-05,3.86488686770746e-05
21.029,1.31932515263619e-05,3.85970094540613e-05
21.0295,1.32163595667346e-05,3.85454486724458e-05
21.03,1.32396117705258e-05,3.8494185965739e-05
21.0305,1.32630055360698e-05,3.84432209998678e-05
21.031,1.32865382357339e-05,3.83925534745548e-05
21.0315,1.3310207216336e-05,3.8342183124691e-05
21.032,1.33340097995669e-05,3.82921097216981e-05
21.0325,1.33579432824167e-05,3.82423330748805e-05
21.033,1.33820049376049e-05,3.81928530327659e-05
21.0335,1.34061920140148e-05,3.81436694844342e-05
21.034,1.34305017371317e-05,3.80947823608319e-05
21.0345,1.34549313094847e-05,3.80461916360742e-05
21.035,1.34794779110925e-05,3.7997897328731e-05
21.0355,1.35041386999124e-05,3.79498995030981e-05
21.036,1.35289108122935e-05,3.79021982704505e-05
21.0365,1.35537913634326e-05,3.78547937902798e-05
21.037,1.35787774478341e-05,3.78076862715121e-05
21.0375,1.36038661397723e-05,3.77608759737066e-05
21.038,1.36290544937581e-05,3.77143632082348e-05
21.0385,1.36543395450079e-05,3.76681483394387e-05
21.039,1.36797183099154e-05,3.76222317857657e-05
21.0395,1.37051877865273e-05,3.75766140208832e-05
21.04,1.37307449550208e-05,3.75312955747675e-05
21.0405,1.37563867781842e-05,3.74862770347696e-05
21.041,1.37821102019005e-05,3.74415590466556e-05
21.0415,1.38079121556329e-05,3.73971423156205e-05
21.042,1.38337895529138e-05,3.73530276072761e-05
21.0425,1.38597392918347e-05,3.73092157486105e-05
21.043,1.38857582555401e-05,3.72657076289193e-05
21.0435,1.39118433127225e-05,3.7222504200708e-05
21.044,1.393799131812e-05,3.71796064805641e-05
21.0445,1.39641991130155e-05,3.71370155499979e-05
21.045,1.39904635257389e-05,3.70947325562531e-05
21.0455,1.401678137217e-05,3.70527587130829e-05
21.046,1.40431494562441e-05,3.7011095301496e-05
21.0465,1.40695645704593e-05,3.69697436704658e-05
21.047,1.40960234963847e-05,3.69287052376073e-05
21.0475,1.41225230051714e-05,3.68879814898175e-05
21.048,1.41490598580643e-05,3.68475739838809e-05
21.0485,1.41756308069153e-05,3.68074843470375e-05
21.049,1.42022325946987e-05,3.67677142775142e-05
21.0495,1.4228861956027e-05,3.67282655450184e-05
21.05,1.4255515617669e-05,3.66891399911925e-05
21.0505,1.42821902990682e-05,3.66503395300304e-05
21.051,1.4308882712863e-05,3.66118661482532e-05
21.0515,1.43355895654081e-05,3.65737219056456e-05
21.052,1.43623075572964e-05,3.65359089353512e-05
21.0525,1.43890333838829e-05,3.64984294441266e-05
21.053,1.44157637358081e-05,3.64612857125542e-05
21.0535,1.4442495299524e-05,3.64244800952118e-05
21.054,1.446922475782e-05,3.63880150208006e-05
21.0545,1.44959487903494e-05,3.63518929922303e-05
21.055,1.45226640741575e-05,3.63161165866592e-05
21.0555,1.45493672842098e-05,3.62806884554925e-05
21.056,1.4576055093921e-05,3.62456113243351e-05
21.0565,1.46027241756846e-05,3.62108879929006e-05
21.057,1.46293712014033e-05,3.61765213348748e-05
21.0575,1.46559928430192e-05,3.61425142977351e-05
21.058,1.46825857730455e-05,3.61088699025238e-05
21.0585,1.47091466650975e-05,3.60755912435762e-05
21.059,1.4735672194425e-05,3.60426814882028e-05
21.0595,1.47621590384439e-05,3.60101438763256e-05
21.06,1.4788603877269e-05,3.59779817200683e-05
21.0605,1.48150033942462e-05,3.59461984033004e-05
21.061,1.48413542764855e-05,3.59147973811342e-05
21.0615,1.48676532153932e-05,3.58837821793763e-05
21.062,1.48938969072053e-05,3.58531563939317e-05
21.0625,1.49200820535194e-05,3.58229236901619e-05
21.063,1.49462053618276e-05,3.57930878021958e-05
21.0635,1.49722635460487e-05,3.57636525321945e-05
21.064,1.49982533270598e-05,3.57346217495689e-05
21.0645,1.50241714332282e-05,3.57059993901512e-05
21.065,1.50500146009428e-05,3.56777894553192e-05
21.0655,1.50757795751442e-05,3.56499960110754e-05
21.066,1.51014631098552e-05,3.56226231870785e-05
21.0665,1.512706196871e-05,3.55956751756291e-05
21.067,1.51525729254833e-05,3.55691562306102e-05
21.0675,1.51779927646178e-05,3.55430706663808e-05
21.068,1.52033182817514e-05,3.55174228566248e-05
21.0685,1.52285462842433e-05,3.54922172331543e-05
21.069,1.52536735916992e-05,3.54674582846685e-05
21.0695,1.52786970364948e-05,3.54431505554667e-05
21.07,1.53036134642988e-05,3.54192986441184e-05
21.0705,1.53284197345944e-05,3.53959072020894e-05
21.071,1.53531127211991e-05,3.53729809323231e-05
21.0715,1.53776893127836e-05,3.5350524587781e-05
21.072,1.54021464133886e-05,3.53285429699387e-05
21.0725,1.54264809429401e-05,3.53070409272411e-05
21.073,1.54506898377635e-05,3.52860233535156e-05
21.0735,1.54747700510949e-05,3.52654951863444e-05
21.074,1.54987185535915e-05,3.5245461405397e-05
21.0745,1.5522532333839e-05,3.52259270307226e-05
21.075,1.55462083988578e-05,3.52068971210027e-05
21.0755,1.55697437746063e-05,3.5188376771767e-05
21.076,1.55931355064819e-05,3.51703711135702e-05
21.0765,1.56163806598203e-05,3.51528853101322e-05
21.077,1.56394763203911e-05,3.51359245564426e-05
21.0775,1.56624195948919e-05,3.51194940768289e-05
21.078,1.56852076114386e-05,3.51035991229906e-05
21.0785,1.57078375200539e-05,3.50882449719999e-05
21.079,1.57303064931517e-05,3.5073436924268e-05
21.0795,1.57526117260194e-05,3.50591803014811e-05
21.08,1.57747504372962e-05,3.50454804445036e-05
21.0805,1.57967198694486e-05,3.50323427112523e-05
21.081,1.58185172892426e-05,3.50197724745399e-05
21.0815,1.58401399882113e-05,3.50077751198916e-05
21.082,1.58615852831206e-05,3.49963560433325e-05
21.0825,1.58828505164292e-05,3.498552064915e-05
21.083,1.59039330567466e-05,3.497527434763e-05
21.0835,1.59248302992851e-05,3.49656225527685e-05
21.084,1.59455396663099e-05,3.49565706799601e-05
21.0845,1.5966058607583e-05,3.4948124143664e-05
21.085,1.59863846008041e-05,3.49402883550488e-05
21.0855,1.60065151520464e-05,3.49330687196169e-05
21.086,1.60264477961879e-05,3.49264706348098e-05
21.0865,1.60461800973385e-05,3.49204994875954e-05
21.087,1.60657096492621e-05,3.49151606520386e-05
21.0875,1.6085034075793e-05,3.49104594868558e-05
21.088,1.61041510312491e-05,3.49064013329551e-05
21.0885,1.61230582008382e-05,3.4902991510963e-05
21.089,1.61417533010602e-05,3.49002353187383e-05
21.0895,1.61602340801039e-05,3.48981380288759e-05
21.09,1.61784983182379e-05,3.48967048861993e-05
21.0905,1.61965438281965e-05,3.48959411052454e-05
21.091,1.621436845556e-05,3.48958518677409e-05
21.0915,1.62319700791288e-05,3.48964423200725e-05
21.092,1.62493466112924e-05,3.48977175707525e-05
21.0925,1.62664959983921e-05,3.48996826878784e-05
21.093,1.62834162210778e-05,3.49023426965919e-05
21.0935,1.63001052946584e-05,3.4905702576534e-05
21.094,1.63165612694472e-05,3.49097672593014e-05
21.0945,1.63327822310992e-05,3.49145416259019e-05
21.095,1.63487663009438e-05,3.49200305042129e-05
21.0955,1.63645116363097e-05,3.49262386664417e-05
21.096,1.63800164308444e-05,3.49331708265908e-05
21.0965,1.63952789148262e-05,3.49408316379286e-05
21.097,1.64102973554695e-05,3.49492256904659e-05
21.0975,1.64250700572243e-05,3.49583575084407e-05
21.098,1.64395953620674e-05,3.49682315478124e-05
21.0985,1.64538716497876e-05,3.49788521937644e-05
21.099,1.64678973382636e-05,3.49902237582208e-05
21.0995,1.64816708837343e-05,3.50023504773723e-05
21.1,1.64951907810627e-05,3.50152365092189e-05
21.1005,1.65084555639914e-05,3.50288859311256e-05
21.101,1.65214638053918e-05,3.50433027373942e-05
21.1015,1.65342141175051e-05,3.50584908368541e-05
21.102,1.65467051521758e-05,3.50744540504691e-05
21.1025,1.65589356010776e-05,3.50911961089655e-05
21.103,1.6570904195932e-05,3.51087206504809e-05
21.1035,1.65826097087182e-05,3.51270312182334e-05
21.104,1.6594050951876e-05,3.51461312582164e-05
21.1045,1.66052267785001e-05,3.51660241169146e-05
21.105,1.6616136082527e-05,3.51867130390483e-05
21.1055,1.66267777989128e-05,3.52082011653417e-05
21.106,1.66371509038042e-05,3.52304915303199e-05
21.1065,1.66472544146999e-05,3.52535870601343e-05
21.107,1.66570873906047e-05,3.52774905704178e-05
21.1075,1.66666489321749e-05,3.53022047641698e-05
21.108,1.66759381818549e-05,3.53277322296747e-05
21.1085,1.66849543240063e-05,3.53540754384506e-05
21.109,1.66936965850274e-05,3.53812367432343e-05
21.1095,1.67021642334646e-05,3.54092183759989e-05
21.11,1.67103565801158e-05,3.54380224460085e-05
21.1105,1.67182729781238e-05,3.54676509379088e-05
21.111,1.67259128230623e-05,3.54981057098547e-05
21.1115,1.67332755530121e-05,3.55293884916773e-05
21.112,1.67403606486294e-05,3.55615008830893e-05
21.1125,1.67471676332048e-05,3.55944443519309e-05
21.113,1.67536960727131e-05,3.5628220232456e-05
21.1135,1.67599455758554e-05,3.56628297236615e-05
21.114,1.67659157940905e-05,3.56982738876565e-05
21.1145,1.67716064216594e-05,3.57345536480775e-05
21.115,1.67770171955989e-05,3.57716697885459e-05
21.1155,1.67821478957476e-05,3.58096229511702e-05
21.116,1.67869983447424e-05,3.58484136350938e-05
21.1165,1.67915684080057e-05,3.58880421950892e-05
21.117,1.67958579937243e-05,3.59285088401973e-05
21.1175,1.67998670528182e-05,3.59698136324158e-05
21.118,1.68035955789019e-05,3.60119564854333e-05
21.1185,1.68070436082351e-05,3.60549371634134e-05
21.119,1.68102112196652e-05,3.60987552798258e-05
21.1195,1.68130985345613e-05,3.61434102963283e-05
21.12,1.68157057167377e-05,3.61889015216973e-05
21.1205,1.68180329723699e-05,3.62352281108087e-05
21.121,1.68200805499011e-05,3.62823890636693e-05
21.1215,1.68218487399394e-05,3.63303832244988e-05
21.122,1.68233378751468e-05,3.63792092808634e-05
21.1225,1.6824548330119e-05,3.64288657628601e-05
21.123,1.68254805212564e-05,3.64793510423538e-05
21.1235,1.68261349066263e-05,3.65306633322645e-05
21.124,1.68265119858164e-05,3.65828006859084e-05
21.1245,1.682661229978e-05,3.66357609963909e-05
21.125,1.68264364306718e-05,3.66895419960513e-05
21.1255,1.68259850016763e-05,3.67441412559604e-05
21.126,1.68252586768262e-05,3.67995561854713e-05
21.1265,1.6824258160814e-05,3.68557840318221e-05
21.127,1.68229841987939e-05,3.69128218797915e-05
21.1275,1.68214375761766e-05,3.69706666514078e-05
21.128,1.68196191184147e-05,3.7029315105709e-05
21.1285,1.68175296907811e-05,3.70887638385572e-05
21.129,1.68151701981385e-05,3.71490092825041e-05
21.1295,1.68125415847019e-05,3.72100477067099e-05
21.13,1.68096448337916e-05,3.72718752169131e-05
21.1305,1.68064809675806e-05,3.73344877554533e-05
21.131,1.68030510468328e-05,3.73978811013456e-05
21.1315,1.67993561706341e-05,3.74620508704049e-05
21.132,1.67953974761159e-05,3.75269925154243e-05
21.1325,1.67911761381716e-05,3.75927013264006e-05
21.133,1.67866933691654e-05,3.76591724308135e-05
21.1335,1.67819504186346e-05,3.77264007939527e-05
21.134,1.67769485729839e-05,3.77943812192953e-05
21.1345,1.67716891551741e-05,3.78631083489325e-05
21.135,1.67661735244028e-05,3.79325766640445e-05
21.1355,1.67604030757793e-05,3.80027804854242e-05
21.136,1.67543792399927e-05,3.80737139740473e-05
21.1365,1.67481034829733e-05,3.81453711316913e-05
21.137,1.67415773055488e-05,3.82177458015988e-05
21.1375,1.67348022430929e-05,3.82908316691884e-05
21.138,1.67277798651695e-05,3.83646222628102e-05
21.1385,1.67205117751696e-05,3.84391109545454e-05
21.139,1.67129996099442e-05,3.85142909610506e-05
21.1395,1.670524503943e-05,3.85901553444447e-05
21.14,1.66972497662709e-05,3.8666697013239e-05
21.1405,1.6689015525434e-05,3.87439087233078e-05
21.141,1.66805440838204e-05,3.88217830789015e-05
21.1415,1.66718372398714e-05,3.89003125336989e-05
21.142,1.66628968231696e-05,3.89794893918997e-05
21.1425,1.66537246940362e-05,3.90593058093547e-05
21.143,1.66443227431228e-05,3.91397537947352e-05
21.1435,1.66346928910001e-05,3.92208252107383e-05
21.144,1.66248370877419e-05,3.93025117753294e-05
21.1445,1.66147573125056e-05,3.93848050630197e-05
21.145,1.66044555731086e-05,3.94676965061784e-05
21.1455,1.65939339056014e-05,3.95511773963788e-05
21.146,1.65831943738376e-05,3.96352388857772e-05
21.1465,1.65722390690403e-05,3.97198719885243e-05
21.147,1.65610701093656e-05,3.98050675822083e-05
21.1475,1.65496896394632e-05,3.98908164093271e-05
21.148,1.65380998300348e-05,3.9977109078792e-05
21.1485,1.65263028773891e-05,4.00639360674589e-05
21.149,1.65143010029955e-05,4.01512877216884e-05
21.1495,1.65020964530347e-05,4.02391542589322e-05
21.15,1.64896914979479e-05,4.03275257693471e-05
21.1505,1.6477088431984e-05,4.04163922174336e-05
21.151,1.64642895727451e-05,4.05057434436996e-05
21.1515,1.64512972607307e-05,4.05955691663479e-05
21.152,1.64381138588802e-05,4.06858589829869e-05
21.1525,1.64247417521145e-05,4.07766023723637e-05
21.153,1.64111833468765e-05,4.08677886961184e-05
21.1535,1.6397441070671e-05,4.09594072005596e-05
21.154,1.63835173716036e-05,4.10514470184586e-05
21.1545,1.6369414717919e-05,4.11438971708649e-05
21.155,1.63551355975391e-05,4.12367465689376e-05
21.1555,1.63406825176009e-05,4.13299840157958e-05
21.156,1.63260580039941e-05,4.1423598208386e-05
21.1565,1.63112646008988e-05,4.15175777393643e-05
21.157,1.62963048703235e-05,4.16119110989946e-05
21.1575,1.62811813916431e-05,4.17065866770624e-05
21.158,1.62658967611377e-05,4.18015927648003e-05
21.1585,1.62504535915317e-05,4.18969175568283e-05
21.159,1.62348545115336e-05,4.19925491531059e-05
21.1595,1.62191021653769e-05,4.20884755608963e-05
21.16,1.62031992123613e-05,4.21846846967407e-05
21.1605,1.61871483263956e-05,4.22811643884444e-05
21.161,1.61709521955415e-05,4.23779023770713e-05
21.1615,1.61546135215584e-05,4.24748863189483e-05
21.162,1.61381350194498e-05,4.25721037876776e-05
21.1625,1.61215194170111e-05,4.2669542276157e-05
21.163,1.61047694543794e-05,4.27671891986071e-05
21.1635,1.60878878835841e-05,4.28650318926054e-05
21.164,1.60708774680995e-05,4.29630576211263e-05
21.1645,1.60537409824e-05,4.30612535745861e-05
21.165,1.60364812115165e-05,4.31596068728925e-05
21.1655,1.60191009505946e-05,4.32581045675e-05
21.166,1.60016030044558e-05,4.33567336434664e-05
21.1665,1.598399018716e-05,4.34554810215147e-05
21.167,1.59662653215707e-05,4.35543335600967e-05
21.1675,1.59484312389225e-05,4.36532780574585e-05
21.168,1.5930490778391e-05,4.37523012537078e-05
21.1685,1.59124467866647e-05,4.38513898328834e-05
21.169,1.589430211752e-05,4.39505304250238e-05
21.1695,1.58760596313988e-05,4.4049709608237e-05
21.17,1.58577221949881e-05,4.41489139107705e-05
21.1705,1.58392926808026e-05,4.42481298130796e-05
21.171,1.58207739667704e-05,4.43473437498957e-05
21.1715,1.58021689358211e-05,4.44465421122936e-05
21.172,1.57834804754761e-05,4.45457112497554e-05
21.1725,1.57647114774434e-05,4.46448374722341e-05
21.173,1.57458648372134e-05,4.47439070522143e-05
21.1735,1.57269434536589e-05,4.48429062267692e-05
21.174,1.57079502286376e-05,4.4941821199616e-05
21.1745,1.56888880665975e-05,4.50406381431669e-05
21.175,1.56697598741857e-05,4.51393432005765e-05
21.1755,1.56505685598594e-05,4.52379224877861e-05
21.176,1.56313170335014e-05,4.53363620955622e-05
21.1765,1.56120082060371e-05,4.54346480915321e-05
21.177,1.55926449890556e-05,4.55327665222136e-05
21.1775,1.55732302944338e-05,4.563070341504e-05
21.178,1.55537670339632e-05,4.572844478038e-05
21.1785,1.55342581189801e-05,4.5825976613552e-05
21.179,1.55147064599994e-05,4.59232848968323e-05
21.1795,1.54951149663505e-05,4.60203556014585e-05
21.18,1.54754865458173e-05,4.6117174689625e-05
21.1805,1.5455824104281e-05,4.62137281164741e-05
21.181,1.5436130545366e-05,4.63100018320789e-05
21.1815,1.5416408770089e-05,4.64059817834212e-05
21.182,1.53966616765111e-05,4.6501653916361e-05
21.1825,1.53768921593936e-05,4.65970041776008e-05
21.183,1.53571031098559e-05,4.66920185166405e-05
21.1835,1.53372974150372e-05,4.67866828877279e-05
21.184,1.53174779577617e-05,4.68809832517996e-05
21.1845,1.52976476162057e-05,4.69749055784158e-05
21.185,1.52778092635685e-05,4.70684358476869e-05
21.1855,1.52579657677465e-05,4.71615600521932e-05
21.186,1.52381199910097e-05,4.72542641988965e-05
21.1865,1.52182747896818e-05,4.73465343110439e-05
21.187,1.51984330138226e-05,4.74383564300644e-05
21.1875,1.51785975069138e-05,4.75297166174575e-05
21.188,1.51587711055478e-05,4.76206009566732e-05
21.1885,1.51389566391189e-05,4.7710995554986e-05
21.189,1.51191569295175e-05,4.78008865453589e-05
21.1895,1.50993747908274e-05,4.7890260088301e-05
21.19,1.50796130290254e-05,4.79791023737164e-05
21.1905,1.50598744416841e-05,4.8067399622746e-05
21.191,1.50401618176768e-05,4.81551380896006e-05
21.1915,1.50204779368856e-05,4.82423040633866e-05
21.192,1.50008255699117e-05,4.83288838699236e-05
21.1925,1.49812074777885e-05,4.84148638735547e-05
21.193,1.49616264116969e-05,4.85002304789479e-05
21.1935,1.49420851126834e-05,4.85849701328913e-05
21.194,1.49225863113806e-05,4.86690693260792e-05
21.1945,1.49031327277295e-05,4.87525145948912e-05
21.195,1.4883727070705e-05,4.88352925231635e-05
21.1955,1.48643720380427e-05,4.89173897439532e-05
21.196,1.48450703159686e-05,4.89987929412941e-05
21.1965,1.48258245789312e-05,4.9079488851946e-05
21.197,1.48066374893344e-05,4.91594642671365e-05
21.1975,1.47875116972743e-05,4.92387060342954e-05
21.198,1.47684498402762e-05,4.93172010587821e-05
21.1985,1.47494545430352e-05,4.9394936305606e-05
21.199,1.47305284171578e-05,4.94718988011401e-05
21.1995,1.47116740609051e-05,4.95480756348276e-05
21.2,1.46928940589393e-05,4.9623453960882e-05
21.2005,1.46741909820702e-05,4.96980209999805e-05
21.201,1.46555673870048e-05,4.97717640409511e-05
21.2015,1.46370258160978e-05,4.98446704424534e-05
21.202,1.46185687971047e-05,4.9916727634653e-05
21.2025,1.46001988429353e-05,4.99879231208903e-05
21.203,1.45819184514099e-05,5.00582444793427e-05
21.2035,1.45637301050167e-05,5.01276793646824e-05
21.204,1.45456362706702e-05,5.01962155097266e-05
21.2045,1.45276393994724e-05,5.02638407270844e-05
21.205,1.45097419264739e-05,5.03305429107968e-05
21.2055,1.44919462704378e-05,5.03963100379724e-05
21.206,1.44742548336041e-05,5.0461130170418e-05
21.2065,1.44566700014562e-05,5.05249914562643e-05
21.207,1.44391941424879e-05,5.05878821315865e-05
21.2075,1.4421829607973e-05,5.0649790522022e-05
21.208,1.44045787317351e-05,5.07107050443813e-05
21.2085,1.43874438299191e-05,5.07706142082572e-05
21.209,1.43704272007646e-05,5.0829506617628e-05
21.2095,1.43535311243796e-05,5.08873709724587e-05
21.21,1.43367578625163e-05,5.09441960702965e-05
21.2105,1.43201096583479e-05,5.09999708078649e-05
21.211,1.43035887362468e-05,5.10546841826523e-05
21.2115,1.42871973015635e-05,5.11083252944994e-05
21.212,1.42709375404081e-05,5.11608833471817e-05
21.2125,1.42548116194316e-05,5.12123476499907e-05
21.213,1.42388216856096e-05,5.12627076193112e-05
21.2135,1.42229698660267e-05,5.13119527801962e-05
21.214,1.42072582676626e-05,5.13600727679402e-05
21.2145,1.41916889771792e-05,5.14070573296483e-05
21.215,1.41762640607093e-05,5.14528963258054e-05
21.2155,1.41609855636464e-05,5.14975797318408e-05
21.216,1.41458555104364e-05,5.15410976396933e-05
21.2165,1.41308759043698e-05,5.1583440259372e-05
21.217,1.41160487273764e-05,5.16245979205175e-05
21.2175,1.41013759398205e-05,5.16645610739594e-05
