Time_s,BCL_Envelope_Raw,BCC_Envelope_Raw
20,-1.16417777941237e-05,2.98816627875951e-05
20.0005,-1.12824927133912e-05,3.02446573586035e-05
20.001,-1.09236436748849e-05,3.06084186673015e-05
20.0015,-1.05652681674716e-05,3.09729154541478e-05
20.002,-1.02074035739247e-05,3.1338116360218e-05
20.0025,-9.85008716164598e-06,3.17039899347921e-05
20.003,-9.49335607343975e-06,3.20705046429695e-05
20.0035,-9.13724731834444e-06,3.24376288733075e-05
20.004,-8.78179776252662e-06,3.28053309454771e-05
20.0045,-8.42704412024173e-06,3.31735791179341e-05
20.005,-8.07302294486631e-06,3.35423415955979e-05
20.0055,-7.71977062000631e-06,3.39115865375363e-05
20.006,-7.36732335068593e-06,3.42812820646485e-05
20.0065,-7.01571715462135e-06,3.4651396267343e-05
20.007,-6.66498785358345e-06,3.50218972132056e-05
20.0075,-6.31517106485372e-06,3.53927529546507e-05
20.008,-5.9663021927769e-06,3.57639315365516e-05
20.0085,-5.61841642041416e-06,3.61354010038447e-05
20.009,-5.27154870129997e-06,3.65071294091012e-05
20.0095,-4.92573375130592e-06,3.68790848200609e-05
20.01,-4.5810060406143e-06,3.72512353271239e-05
20.0105,-4.23739978580406e-06,3.76235490507937e-05
20.011,-3.89494894205164e-06,3.79959941490667e-05
20.0115,-3.553687195449e-06,3.83685388247644e-05
20.012,-3.21364795544084e-06,3.87411513328026e-05
20.0125,-2.87486434738328e-06,3.91137999873937e-05
20.013,-2.5373692052258e-06,3.94864531691792e-05
20.0135,-2.20119506431856e-06,3.98590793322869e-05
20.014,-1.86637415434691e-06,4.02316470113118e-05
20.0145,-1.53293839239497e-06,4.06041248282158e-05
20.015,-1.2009193761402e-06,4.09764814991448e-05
20.0155,-8.70348377180473e-07,4.13486858411604e-05
20.016,-5.41256334495458e-07,4.17207067788832e-05
20.0165,-2.13673848043825e-07,4.20925133510469e-05
20.017,1.12368827502351e-07,4.24640747169594e-05
20.0175,4.36841788884579e-07,4.28353601628701e-05
20.018,7.59715490245109e-07,4.32063391082406e-05
20.0185,1.08096074897317e-06,4.35769811119166e-05
20.019,1.40054875140921e-06,4.39472558781987e-05
20.0195,1.71845105840637e-06,4.43171332628108e-05
20.02,2.03463961074821e-06,4.4686583278762e-05
20.0205,2.34908673442214e-06,4.50555761021027e-05
20.021,2.66176514574777e-06,4.542408207757e-05
20.0215,2.97264795635956e-06,4.5792071724123e-05
20.022,3.28170867804321e-06,4.61595157403641e-05
20.0225,3.58892122742505e-06,4.65263850098449e-05
20.023,3.89425993051409e-06,4.68926506062546e-05
20.0235,4.19769952709605e-06,4.72582837984886e-05
20.024,4.49921517497908e-06,4.76232560555948e-05
20.0245,4.7987824540908e-06,4.7987539051596e-05
20.025,5.09637737042649e-06,4.83511046701864e-05
20.0255,5.3919763598483e-06,4.87139250092999e-05
20.026,5.68555629173552e-06,4.90759723855478e-05
20.0265,5.97709447248585e-06,4.94372193385253e-05
20.027,6.26656864886802e-06,4.9797638634983e-05
20.0275,6.55395701122571e-06,5.01572032728635e-05
20.028,6.83923819653323e-06,5.05158864851983e-05
20.0285,7.12239129130306e-06,5.08736617438659e-05
20.029,7.40339583434552e-06,5.12305027632069e-05
20.0295,7.68223181938097e-06,5.15863835034951e-05
20.03,7.95887969750469e-06,5.19412781742641e-05
20.0305,8.23332037950505e-06,5.22951612374857e-05
20.031,8.50553523803511e-06,5.26480074106017e-05
20.0315,8.77550610963832e-06,5.29997916694054e-05
20.032,9.04321529662881e-06,5.33504892507744e-05
20.0325,9.30864556882688e-06,5.37000756552528e-05
20.033,9.57178016515034e-06,5.4048526649482e-05
20.0335,9.83260279506252e-06,5.43958182684823e-05
20.034,1.00910976398777e-05,5.47419268177817e-05
20.0345,1.03472493539247e-05,5.50868288753956e-05
20.035,1.06010430655701e-05,5.54305012936557e-05
20.0355,1.0852464378101e-05,5.57729212008885e-05
20.036,1.11014993704695e-05,5.61140660029464e-05
20.0365,1.13481345978994e-05,5.64539133845893e-05
20.037,1.15923570923561e-05,5.67924413107205e-05
20.0375,1.18341543628808e-05,5.71296280274765e-05
20.038,1.20735143957911e-05,5.74654520631726e-05
20.0385,1.23104256547474e-05,5.77998922291066e-05
20.039,1.25448770806878e-05,5.81329276202204e-05
20.0395,1.27768580916322e-05,5.8464537615623e-05
20.04,1.3006358582356e-05,5.87947018789748e-05
20.0405,1.32333689239355e-05,5.91234003587352e-05
20.041,1.34578799631655e-05,5.94506132882759e-05
20.0415,1.36798830218512e-05,5.97763211858589e-05
20.042,1.38993698959746e-05,6.01005048544826e-05
20.0425,1.41163328547375e-05,6.04231453815953e-05
20.043,1.43307646394826e-05,6.07442241386788e-05
20.0435,1.45426584624937e-05,6.10637227807023e-05
20.044,1.47520080056764e-05,6.13816232454497e-05
20.0445,1.4958807419122e-05,6.16979077527206e-05
20.045,1.51630513195548e-05,6.20125588034086e-05
20.0455,1.53647347886645e-05,6.23255591784598e-05
20.046,1.55638533713263e-05,6.26368919377132e-05
20.0465,1.57604030737099e-05,6.29465404186285e-05
20.047,1.59543803612778e-05,6.32544882349028e-05
20.0475,1.61457821566764e-05,6.35607192749833e-05
20.048,1.633460583752e-05,6.3865217700478e-05
20.0485,1.65208492340703e-05,6.41679679444705e-05
20.049,1.67045106268116e-05,6.44689547097444e-05
20.0495,1.68855887439245e-05,6.47681629669217e-05
20.05,1.70640827586584e-05,6.50655779525213e-05
20.0505,1.72399922866048e-05,6.53611851669423e-05
20.051,1.74133173828735e-05,6.56549703723783e-05
20.0515,1.7584058539171e-05,6.59469195906662e-05
20.052,1.77522166807861e-05,6.62370191010762e-05
20.0525,1.79177931634816e-05,6.65252554380472e-05
20.053,1.80807897702945e-05,6.68116153888718e-05
20.0535,1.82412087082481e-05,6.70960859913369e-05
20.054,1.83990526049754e-05,6.73786545313242e-05
20.0545,1.85543245052575e-05,6.76593085403751e-05
20.055,1.87070278674782e-05,6.79380357932256e-05
20.0555,1.88571665599965e-05,6.82148243053149e-05
20.056,1.90047448574386e-05,6.84896623302736e-05
20.0565,1.91497674369125e-05,6.87625383573962e-05
20.057,1.92922393741448e-05,6.90334411091025e-05
20.0575,1.94321661395431e-05,6.93023595383935e-05
20.058,1.95695535941854e-05,6.95692828263063e-05
20.0585,1.97044079857374e-05,6.98342003793736e-05
20.059,1.98367359443007e-05,7.00971018270921e-05
20.0595,1.99665444781921e-05,7.03579770194053e-05
20.06,2.00938409696577e-05,7.06168160242042e-05
20.0605,2.0218633170521e-05,7.08736091248514e-05
20.061,2.03409291977689e-05,7.11283468177329e-05
20.0615,2.04607375290762e-05,7.138101980984e-05
20.062,2.05780669982704e-05,7.16316190163868e-05
20.0625,2.0692926790739e-05,7.18801355584664e-05
20.063,2.080532643878e-05,7.21265607607487e-05
20.0635,2.09152758168985e-05,7.23708861492227e-05
20.064,2.10227851370505e-05,7.26131034489877e-05
20.0645,2.11278649438348e-05,7.28532045820943e-05
20.065,2.12305261096361e-05,7.30911816654387e-05
20.0655,2.13307798297196e-05,7.33270270087131e-05
20.066,2.14286376172792e-05,7.3560733112412e-05
20.0665,2.15241112984403e-05,7.37922926658995e-05
20.067,2.16172130072195e-05,7.40216985455357e-05
20.0675,2.17079551804422e-05,7.42489438128666e-05
20.068,2.17963505526198e-05,7.44740217128763e-05
20.0685,2.18824121507889e-05,7.4696925672304e-05
20.069,2.19661532893131e-05,7.49176492980266e-05
20.0695,2.20475875646501e-05,7.51361863755052e-05
20.07,2.2126728850086e-05,7.53525308672994e-05
20.0705,2.22035912904386e-05,7.55666769116457e-05
20.071,2.22781892967303e-05,7.57786188211027e-05
20.0715,2.23505375408352e-05,7.59883510812612e-05
20.072,2.24206509500992e-05,7.61958683495183e-05
20.0725,2.24885447019367e-05,7.64011654539164e-05
20.073,2.25542342184045e-05,7.66042373920438e-05
20.0735,2.26177351607561e-05,7.68050793299978e-05
20.074,2.26790634239756e-05,7.70036866014062e-05
20.0745,2.27382351312957e-05,7.72000547065088e-05
20.075,2.27952666286991e-05,7.73941793112943e-05
20.0755,2.28501744794066e-05,7.75860562466912e-05
20.076,2.29029754583526e-05,7.77756815078119e-05
20.0765,2.29536865466504e-05,7.79630512532457e-05
20.077,2.30023249260487e-05,7.8148161804399e-05
20.0775,2.30489079733801e-05,7.83310096448803e-05
20.078,2.30934532550057e-05,7.85115914199269e-05
20.0785,2.3135978521254e-05,7.86899039358712e-05
20.079,2.31765017008594e-05,7.8865944159643e-05
20.0795,2.32150408953988e-05,7.90397092183064e-05
20.08,2.32516143737304e-05,7.92111963986272e-05
20.0805,2.32862405664348e-05,7.93804031466702e-05
20.081,2.33189380602613e-05,7.9547327067421e-05
20.0815,2.33497255925795e-05,7.97119659244318e-05
20.082,2.33786220458392e-05,7.9874317639487e-05
20.0825,2.34056464420398e-05,8.00343802922851e-05
20.083,2.34308179372098e-05,8.0192152120135e-05
20.0835,2.3454155815899e-05,8.03476315176616e-05
20.084,2.34756794856845e-05,8.05008170365189e-05
20.0845,2.34954084716916e-05,8.06517073851075e-05
20.085,2.35133624111319e-05,8.08003014282924e-05
20.0855,2.35295610478597e-05,8.09465981871199e-05
20.086,2.35440242269484e-05,8.10905968385297e-05
20.0865,2.35567718892885e-05,8.12322967150616e-05
20.087,2.35678240662097e-05,8.13716973045534e-05
20.0875,2.35772008741269e-05,8.15087982498294e-05
20.088,2.3584922509214e-05,8.16435993483779e-05
20.0885,2.35910092421052e-05,8.17761005520151e-05
20.089,2.35954814126276e-05,8.19063019665362e-05
20.0895,2.35983594245636e-05,8.20342038513491e-05
20.09,2.35996637404481e-05,8.21598066190918e-05
20.0905,2.35994148763997e-05,8.22831108352292e-05
20.091,2.35976333969875e-05,8.24041172176293e-05
20.0915,2.35943399101366e-05,8.25228266361145e-05
20.092,2.35895550620718e-05,8.26392401119892e-05
20.0925,2.35832995323032e-05,8.27533588175389e-05
20.093,2.35755940286535e-05,8.2865184075502e-05
20.0935,2.35664592823289e-05,8.29747173585118e-05
20.094,2.35559160430371e-05,8.30819602885086e-05
20.0945,2.35439850741508e-05,8.31869146361214e-05
20.095,2.3530687147921e-05,8.3289582320019e-05
20.0955,2.351604304074e-05,8.33899654062311e-05
20.096,2.35000735284563e-05,8.34880661074386e-05
20.0965,2.34827993817421e-05,8.35838867822344e-05
20.097,2.34642413615152e-05,8.36774299343539e-05
20.0975,2.34444202144162e-05,8.37686982118763e-05
20.098,2.34233566683424e-05,8.38576944063947e-05
20.0985,2.34010714280389e-05,8.39444214521569e-05
20.099,2.33775851707488e-05,8.40288824251743e-05
20.0995,2.33529185419229e-05,8.4111080542301e-05
20.1,2.33270921509893e-05,8.4191019160281e-05
20.1005,2.33001265671855e-05,8.42687017747642e-05
20.101,2.32720423154517e-05,8.43441320192916e-05
20.1015,2.32428598723879e-05,8.44173136642498e-05
20.102,2.32125996622743e-05,8.44882506157938e-05
20.1025,2.31812820531565e-05,8.45569469147405e-05
20.103,2.31489273529957e-05,8.46234067354307e-05
20.1035,2.31155558058848e-05,8.46876343845608e-05
20.104,2.30811875883306e-05,8.47496342999834e-05
20.1045,2.30458428056033e-05,8.48094110494764e-05
20.105,2.30095414881529e-05,8.48669693294818e-05
20.1055,2.29723035880939e-05,8.49223139638125e-05
20.106,2.29341489757577e-05,8.49754499023278e-05
20.1065,2.28950974363144e-05,8.50263822195794e-05
20.107,2.2855168666463e-05,8.50751161134257e-05
20.1075,2.28143822711912e-05,8.51216569036179e-05
20.108,2.27727577606043e-05,8.51660100303557e-05
20.1085,2.27303145468242e-05,8.52081810528161e-05
20.109,2.2687071940958e-05,8.52481756476535e-05
20.1095,2.26430491501364e-05,8.5285999607473e-05
20.11,2.25982652746216e-05,8.53216588392761e-05
20.1105,2.25527393049847e-05,8.53551593628804e-05
20.111,2.25064901193534e-05,8.5386507309312e-05
20.1115,2.24595364807283e-05,8.54157089191716e-05
20.112,2.24118970343687e-05,8.54427705409752e-05
20.1125,2.23635903052476e-05,8.54676986294697e-05
20.113,2.23146346955756e-05,8.54904997439256e-05
20.1135,2.22650484823941e-05,8.55111805464084e-05
20.114,2.22148498152363e-05,8.552974780003e-05
20.1145,2.21640567138575e-05,8.55462083671856e-05
20.115,2.21126870660329e-05,8.55605692077755e-05
20.1155,2.20607586254232e-05,8.5572837377418e-05
20.116,2.20082890095074e-05,8.55830200256549e-05
20.1165,2.19552956975825e-05,8.55911243941536e-05
20.117,2.19017960288295e-05,8.55971578149088e-05
20.1175,2.18478072004439e-05,8.56011277084461e-05
20.118,2.1793346265833e-05,8.56030415820315e-05
20.1185,2.17384301328762e-05,8.5602907027889e-05
20.119,2.16830755622496e-05,8.56007317214277e-05
20.1195,2.16272991658147e-05,8.55965234194819e-05
20.12,2.15711174050687e-05,8.55902899585658e-05
20.1205,2.15145465896579e-05,8.55820392531451e-05
20.121,2.14576028759532e-05,8.55717792939275e-05
20.1215,2.14003022656861e-05,8.55595181461753e-05
20.122,2.13426606046456e-05,8.55452639480424e-05
20.1225,2.12846935814359e-05,8.55290249089383e-05
20.123,2.12264167262929e-05,8.55108093079234e-05
20.1235,2.11678454099592e-05,8.5490625492139e-05
20.124,2.11089948426179e-05,8.5468481875276e-05
20.1245,2.10498800728829e-05,8.54443869360856e-05
20.125,2.0990515986846e-05,8.54183492169382e-05
20.1255,2.09309173071797e-05,8.53903773224329e-05
20.126,2.08710985922947e-05,8.53604799180628e-05
20.1265,2.08110742355522e-05,8.53286657289397e-05
20.127,2.07508584645301e-05,8.52949435385818e-05
20.1275,2.0690465340342e-05,8.52593221877694e-05
20.128,2.06299087570097e-05,8.52218105734696e-05
20.1285,2.05692024408881e-05,8.51824176478365e-05
20.129,2.05083599501419e-05,8.51411524172879e-05
20.1295,2.0447394674275e-05,8.50980239416635e-05
20.13,2.03863198337101e-05,8.50530413334669e-05
20.1305,2.03251484794202e-05,8.50062137571957e-05
20.131,2.02638934926101e-05,8.49575504287614e-05
20.1315,2.02025675844481e-05,8.49070606150039e-05
20.132,2.01411832958463e-05,8.48547536333019e-05
20.1325,2.0079752997291e-05,8.48006388512829e-05
20.133,2.00182888887194e-05,8.47447256866344e-05
20.1335,1.99568029994455e-05,8.46870236070197e-05
20.134,1.9895307188132e-05,8.46275421300982e-05
20.1345,1.98338131428087e-05,8.45662908236543e-05
20.135,1.97723323809371e-05,8.4503279305835e-05
20.1355,1.97108762495204e-05,8.44385172454979e-05
20.136,1.96494559252584e-05,8.43720143626713e-05
20.1365,1.95880824147472e-05,8.43037804291265e-05
20.137,1.95267665547233e-05,8.42338252690638e-05
20.1375,1.94655190123512e-05,8.41621587599124e-05
20.138,1.94043502855543e-05,8.40887908332433e-05
20.1385,1.93432707033886e-05,8.40137314757979e-05
20.139,1.92822904264586e-05,8.39369907306293e-05
20.1395,1.92214194473744e-05,8.38585786983578e-05
20.14,1.916066759125e-05,8.37785055385393e-05
20.1405,1.91000445162411e-05,8.36967814711475e-05
20.141,1.9039559714123e-05,8.36134167781671e-05
20.1415,1.89792225109062e-05,8.35284218052989e-05
20.142,1.89190420674906e-05,8.34418069637749e-05
20.1425,1.88590273803565e-05,8.33535827322822e-05
20.143,1.87991872822921e-05,8.32637596589943e-05
20.1435,1.87395304431568e-05,8.31723483637073e-05
20.144,1.86800653706795e-05,8.30793595400803e-05
20.1445,1.86208004112906e-05,8.2984803957976e-05
20.145,1.85617437509888e-05,8.28886924659006e-05
20.1455,1.85029034162395e-05,8.27910359935387e-05
20.146,1.84442872749056e-05,8.26918455543824e-05
20.1465,1.83859030372096e-05,8.25911322484495e-05
20.147,1.83277582567259e-05,8.24889072650899e-05
20.1475,1.82698603314025e-05,8.23851818858749e-05
20.148,1.82122165046108e-05,8.2279967487568e-05
20.1485,1.81548338662235e-05,8.2173275545172e-05
20.149,1.80977193537179e-05,8.20651176350488e-05
20.1495,1.80408797533052e-05,8.19555054381091e-05
20.15,1.79843217010838e-05,8.18444507430661e-05
20.1505,1.79280516842151e-05,8.17319654497495e-05
20.151,1.78720760421223e-05,8.16180615724762e-05
20.1515,1.78164009677094e-05,8.15027512434715e-05
20.152,1.77610325086013e-05,8.13860467163364e-05
20.1525,1.77059765684019e-05,8.12679603695566e-05
20.153,1.76512389079722e-05,8.11485047100472e-05
20.1535,1.75968251467248e-05,8.10276923767265e-05
20.154,1.75427407639368e-05,8.09055361441153e-05
20.1545,1.74889911000774e-05,8.07820489259531e-05
20.155,1.74355813581531e-05,8.06572437788268e-05
20.1555,1.73825166050666e-05,8.05311339058035e-05
20.156,1.73298017729902e-05,8.04037326600623e-05
20.1565,1.72774416607537e-05,8.02750535485174e-05
20.157,1.72254409352436e-05,8.0145110235425e-05
20.1575,1.71738041328161e-05,8.00139165459679e-05
20.158,1.712253566072e-05,7.98814864698095e-05
20.1585,1.70716397985306e-05,7.97478341646103e-05
20.159,1.70211206995938e-05,7.96129739594982e-05
20.1595,1.69709823924778e-05,7.94769203584867e-05
20.16,1.69212287824348e-05,7.93396880438301e-05
20.1605,1.68718636528692e-05,7.92012918793107e-05
20.161,1.68228906668124e-05,7.9061746913447e-05
20.1615,1.6774313368405e-05,7.89210683826158e-05
20.162,1.67261351843836e-05,7.87792717140787e-05
20.1625,1.66783594255733e-05,7.8636372528906e-05
20.163,1.66309892883837e-05,7.84923866447865e-05
20.1635,1.658402785631e-05,7.8347330078718e-05
20.164,1.65374781014362e-05,7.82012190495682e-05
20.1645,1.64913428859415e-05,7.80540699804988e-05
20.165,1.64456249636079e-05,7.79058995012446e-05
20.1655,1.64003269813303e-05,7.77567244502403e-05
20.166,1.63554514806253e-05,7.76065618765872e-05
20.1665,1.63110008991411e-05,7.7455429041852e-05
20.167,1.62669775721659e-05,7.73033434216916e-05
20.1675,1.62233837341341e-05,7.7150322707294e-05
20.168,1.61802215201305e-05,7.69963848066306e-05
20.1685,1.61374929673907e-05,7.68415478455103e-05
20.169,1.60952000167978e-05,7.66858301684292e-05
20.1695,1.60533445143735e-05,7.6529250339208e-05
20.17,1.60119282127645e-05,7.63718271414112e-05
20.1705,1.59709527727218e-05,7.62135795785423e-05
20.171,1.59304197645733e-05,7.60545268740082e-05
20.1715,1.58903306696885e-05,7.58946884708518e-05
20.172,1.58506868819339e-05,7.57340840312449e-05
20.1725,1.58114897091199e-05,7.55727334357429e-05
20.173,1.57727403744369e-05,7.5410656782297e-05
20.1735,1.57344400178809e-05,7.52478743850223e-05
20.174,1.5696589697666e-05,7.5084406772723e-05
20.1745,1.56591903916262e-05,7.49202746871719e-05
20.175,1.56222429986015e-05,7.47554990811464e-05
20.1755,1.55857483398121e-05,7.45901011162183e-05
20.176,1.55497071602157e-05,7.44241021602995e-05
20.1765,1.55141201298513e-05,7.42575237849422e-05
20.177,1.54789878451666e-05,7.4090387762394e-05
20.1775,1.54443108303291e-05,7.39227160624073e-05
20.178,1.54100895385219e-05,7.37545308488053e-05
20.1785,1.53763243532226e-05,7.35858544758041e-05
20.179,1.53430155894658e-05,7.34167094840936e-05
20.1795,1.53101634950888e-05,7.32471185966811e-05
20.18,1.52777682519604e-05,7.30771047144996e-05
20.1805,1.5245829977193e-05,7.29066909117875e-05
20.181,1.52143487243368e-05,7.27359004312432e-05
20.1815,1.51833244845568e-05,7.25647566789623e-05
20.182,1.51527571877919e-05,7.23932832191626e-05
20.1825,1.51226467038961e-05,7.22215037687051e-05
20.183,1.50929928437618e-05,7.20494421914169e-05
20.1835,1.50637953604244e-05,7.18771224922252e-05
20.184,1.50350539501488e-05,7.17045688111086e-05
20.1845,1.50067682534973e-05,7.15318054168735e-05
20.185,1.49789378563786e-05,7.13588567007629e-05
20.1855,1.4951562291078e-05,7.1185747169905e-05
20.186,1.49246410372696e-05,7.10125014406082e-05
20.1865,1.48981735230092e-05,7.08391442315093e-05
20.187,1.48721591257089e-05,7.06657003565819e-05
20.1875,1.48465971730933e-05,7.04921947180114e-05
20.188,1.4821486944138e-05,7.03186522989435e-05
20.1885,1.47968276699893e-05,7.01450981561132e-05
20.189,1.47726185348669e-05,6.99715574123611e-05
20.1895,1.47488586769485e-05,6.97980552490449e-05
20.19,1.47255471892375e-05,6.9624616898353e-05
20.1905,1.47026831204127e-05,6.94512676355274e-05
20.191,1.46802654756617e-05,6.92780327710049e-05
20.1915,1.46582932174963e-05,6.91049376424828e-05
20.192,1.46367652665522e-05,6.89320076069176e-05
20.1925,1.4615680502371e-05,6.87592680324642e-05
20.193,1.45950377641665e-05,6.8586744290362e-05
20.1935,1.45748358515746e-05,6.8414461746776e-05
20.194,1.45550735253876e-05,6.82424457546e-05
20.1945,1.45357495082725e-05,6.80707216452268e-05
20.195,1.45168624854752e-05,6.78993147202952e-05
20.1955,1.44984111055082e-05,6.77282502434169e-05
20.196,1.44803939808254e-05,6.7557553431893e-05
20.1965,1.44628096884814e-05,6.73872494484223e-05
20.197,1.44456567707769e-05,6.72173633928115e-05
20.1975,1.44289337358905e-05,6.70479202936895e-05
20.198,1.44126390584967e-05,6.68789451002332e-05
20.1985,1.43967711803699e-05,6.67104626739097e-05
20.199,1.4381328510976e-05,6.65424977802392e-05
20.1995,1.43663094280497e-05,6.63750750805853e-05
20.2,1.43517122781594e-05,6.62082191239748e-05
20.2005,1.43375353772586e-05,6.60419543389534e-05
20.201,1.43237770112246e-05,6.58763050254815e-05
20.2015,1.43104354363841e-05,6.57112953468728e-05
20.202,1.42975088800264e-05,6.55469493217818e-05
20.2025,1.42849955409041e-05,6.53832908162419e-05
20.203,1.42728935897216e-05,6.52203435357611e-05
20.2035,1.42612011696123e-05,6.50581310174759e-05
20.204,1.42499163966036e-05,6.489667662237e-05
20.2045,1.42390373600719e-05,6.47360035275608e-05
20.205,1.42285621231863e-05,6.45761347186581e-05
20.2055,1.42184887233426e-05,6.44170929821993e-05
20.206,1.42088151725876e-05,6.4258900898164e-05
20.2065,1.41995394580337e-05,6.41015808325749e-05
20.207,1.41906595422646e-05,6.39451549301858e-05
20.2075,1.41821733637331e-05,6.37896451072627e-05
20.208,1.41740788371492e-05,6.36350730444613e-05
20.2085,1.41663738538619e-05,6.34814601798046e-05
20.209,1.41590562822328e-05,6.33288277017636e-05
20.2095,1.4152123968003e-05,6.31771965424446e-05
20.21,1.41455747346536e-05,6.30265873708872e-05
20.2105,1.41394063837607e-05,6.28770205864742e-05
20.211,1.41336166953449e-05,6.27285163124571e-05
20.2115,1.41282034282162e-05,6.25810943896008e-05
20.212,1.41231643203146e-05,6.24347743699483e-05
20.2125,1.41184970890477e-05,6.22895755107097e-05
20.213,1.41141994316247e-05,6.21455167682781e-05
20.2135,1.41102690253882e-05,6.20026167923747e-05
20.214,1.41067035281439e-05,6.18608939203263e-05
20.2145,1.41035005784891e-05,6.1720366171478e-05
20.215,1.41006577961387e-05,6.1581051241745e-05
20.2155,1.40981727822521e-05,6.14429664983044e-05
20.216,1.40960431197584e-05,6.13061289744323e-05
20.2165,1.40942663736816e-05,6.11705553644874e-05
20.217,1.4092840091466e-05,6.10362620190434e-05
20.2175,1.40917618033015e-05,6.09032649401738e-05
20.218,1.40910290224499e-05,6.07715797768907e-05
20.2185,1.40906392455709e-05,6.06412218207394e-05
20.219,1.40905899530499e-05,6.05122060015513e-05
20.2195,1.40908786093258e-05,6.0384546883356e-05
20.22,1.40915026632208e-05,6.02582586604559e-05
20.2205,1.40924595482708e-05,6.01333551536623e-05
20.221,1.40937466830578e-05,6.0009849806697e-05
20.2215,1.40953614715444e-05,5.98877556827596e-05
20.222,1.40973013034092e-05,5.97670854612608e-05
20.2225,1.40995635543856e-05,5.96478514347255e-05
20.223,1.41021455866019e-05,5.95300655058635e-05
20.2235,1.41050447489238e-05,5.94137391848113e-05
20.224,1.41082583772995e-05,5.92988835865439e-05
20.2245,1.41117837951069e-05,5.91855094284584e-05
20.225,1.41156183135028e-05,5.90736270281291e-05
20.2255,1.41197592317749e-05,5.89632463012337e-05
20.226,1.41242038376953e-05,5.88543767596518e-05
20.2265,1.41289494078764e-05,5.87470275097345e-05
20.227,1.41339932081282e-05,5.8641207250745e-05
20.2275,1.41393324938177e-05,5.85369242734689e-05
20.228,1.41449645102295e-05,5.84341864589947e-05
20.2285,1.41508864929273e-05,5.8333001277662e-05
20.229,1.41570956681171e-05,5.82333757881769e-05
20.2295,1.41635892530108e-05,5.81353166368938e-05
20.23,1.41703644561909e-05,5.80388300572615e-05
20.2305,1.41774184779752e-05,5.79439218694321e-05
20.231,1.41847485107831e-05,5.78505974800332e-05
20.2315,1.41923517395015e-05,5.77588618820989e-05
20.232,1.42002253418512e-05,5.76687196551613e-05
20.2325,1.42083664887544e-05,5.75801749654989e-05
20.233,1.4216772344701e-05,5.74932315665413e-05
20.2335,1.42254400681159e-05,5.74078927994279e-05
20.234,1.42343668117256e-05,5.732416159372e-05
20.2345,1.42435497229245e-05,5.72420404682627e-05
20.235,1.42529859441408e-05,5.71615315321957e-05
20.2355,1.42626726132014e-05,5.70826364861105e-05
20.236,1.42726068636967e-05,5.70053566233509e-05
20.2365,1.42827858253442e-05,5.69296928314556e-05
20.237,1.42932066243522e-05,5.68556455937389e-05
20.2375,1.43038663837826e-05,5.67832149910077e-05
20.238,1.43147622239141e-05,5.6712400703413e-05
20.2385,1.43258912626044e-05,5.6643202012431e-05
20.239,1.43372506156535e-05,5.65756178029735e-05
20.2395,1.43488373971669e-05,5.65096465656229e-05
20.24,1.4360648719919e-05,5.64452863989911e-05
20.2405,1.43726816957173e-05,5.63825350121978e-05
20.241,1.43849334357673e-05,5.6321389727466e-05
20.2415,1.43974010510379e-05,5.62618474828323e-05
20.242,1.44100816526277e-05,5.62039048349686e-05
20.2425,1.44229723521321e-05,5.6147557962112e-05
20.243,1.44360702620113e-05,5.60928026671005e-05
20.2435,1.44493724959592e-05,5.60396343805111e-05
20.244,1.44628761692732e-05,5.59880481638959e-05
20.2445,1.4476578399225e-05,5.59380387131142e-05
20.245,1.44904763054316e-05,5.5889600361756e-05
20.2455,1.45045670102276e-05,5.58427270846536e-05
20.246,1.45188476390379e-05,5.57974125014779e-05
20.2465,1.45333153207508e-05,5.57536498804155e-05
20.247,1.45479671880918e-05,5.57114321419245e-05
20.2475,1.45628003779972e-05,5.56707518625644e-05
20.248,1.45778120319884e-05,5.56316012788992e-05
20.2485,1.45929992965461e-05,5.55939722914695e-05
20.249,1.46083593234836e-05,5.55578564688325e-05
20.2495,1.46238892703207e-05,5.55232450516672e-05
20.25,1.46395863006558e-05,5.54901289569427e-05
20.2505,1.46554475845374e-05,5.54584987821485e-05
20.251,1.46714702988348e-05,5.5428344809585e-05
20.2515,1.4687651627606e-05,5.5399657010712e-05
20.252,1.47039887624654e-05,5.53724250505539e-05
20.2525,1.47204789029481e-05,5.53466382921605e-05
20.253,1.47371192568733e-05,5.53222858011196e-05
20.2535,1.47539070407045e-05,5.52993563501223e-05
20.254,1.47708394799074e-05,5.52778384235757e-05
20.2545,1.47879138093058e-05,5.5257720222265e-05
20.255,1.48051272734332e-05,5.52389896680595e-05
20.2555,1.48224771268826e-05,5.52216344086639e-05
20.256,1.48399606346514e-05,5.5205641822412e-05
20.2565,1.4857575072484e-05,5.51909990231022e-05
20.257,1.48753177272087e-05,5.51776928648736e-05
20.2575,1.48931858970716e-05,5.51657099471228e-05
20.258,1.4911176892065e-05,5.51550366194593e-05
20.2585,1.4929288034252e-05,5.51456589867004e-05
20.259,1.49475166580853e-05,5.51375629139046e-05
20.2595,1.49658601107214e-05,5.51307340314438e-05
20.26,1.49843157523304e-05,5.51251577401136e-05
20.2605,1.50028809563997e-05,5.51208192162824e-05
20.261,1.50215531100337e-05,5.51177034170783e-05
20.2615,1.50403296142472e-05,5.51157950856158e-05
20.262,1.50592078842551e-05,5.51150787562594e-05
20.2625,1.5078185349756e-05,5.51155387599275e-05
20.263,1.50972594552105e-05,5.51171592294329e-05
20.2635,1.51164276601149e-05,5.51199241048624e-05
20.264,1.51356874392684e-05,5.5123817138993e-05
20.2645,1.51550362830356e-05,5.51288219027453e-05
20.265,1.51744716976023e-05,5.51349217906733e-05
20.2655,1.51939912052257e-05,5.51421000264891e-05
20.266,1.5213592344478e-05,5.51503396686231e-05
20.2665,1.52332726704836e-05,5.51596236158162e-05
20.267,1.52530297551492e-05,5.51699346127458e-05
20.2675,1.5272861187387e-05,5.51812552556813e-05
20.268,1.52927645733299e-05,5.51935679981689e-05
20.2685,1.53127375365403e-05,5.52068551567447e-05
20.269,1.53327777182093e-05,5.52210989166715e-05
20.2695,1.53528827773494e-05,5.52362813377e-05
20.27,1.53730503909781e-05,5.52523843598503e-05
20.2705,1.53932782542941e-05,5.52693898092123e-05
20.271,1.54135640808455e-05,5.52872794037622e-05
20.2715,1.54339056026895e-05,5.53060347591927e-05
20.272,1.54543005705455e-05,5.53256373947536e-05
20.2725,1.54747467539397e-05,5.53460687391013e-05
20.273,1.54952419413429e-05,5.53673101361526e-05
20.2735,1.55157839403011e-05,5.53893428509401e-05
20.274,1.55363705775589e-05,5.5412148075467e-05
20.2745,1.55569996991756e-05,5.54357069345574e-05
20.275,1.55776691706352e-05,5.54600004916985e-05
20.2755,1.55983768769488e-05,5.54850097548738e-05
20.276,1.56191207227512e-05,5.55107156823829e-05
20.2765,1.5639898632391e-05,5.55370991886468e-05
20.277,1.5660708550014e-05,5.55641411499968e-05
20.2775,1.5681548439642e-05,5.55918224104443e-05
20.278,1.57024162852453e-05,5.5620123787431e-05
20.2785,1.572331009081e-05,5.56490260775586e-05
20.279,1.57442278804011e-05,5.56785100622956e-05
20.2795,1.57651676982207e-05,5.5708556513662e-05
20.28,1.57861276086628e-05,5.57391461998896e-05
20.2805,1.58071056963638e-05,5.57702598910576e-05
20.281,1.58281000662506e-05,5.58018783647024e-05
20.2815,1.5849108843586e-05,5.58339824114001e-05
20.282,1.58701301740117e-05,5.58665528403209e-05
20.2825,1.58911622235897e-05,5.58995704847537e-05
20.283,1.59122031788429e-05,5.59330162076005e-05
20.2835,1.59332512467942e-05,5.59668709068388e-05
20.284,1.59543046550054e-05,5.60011155209522e-05
20.2845,1.59753616516161e-05,5.60357310343276e-05
20.285,1.59964205053824e-05,5.60706984826202e-05
20.2855,1.60174795057157e-05,5.6105998958085e-05
20.286,1.60385369627228e-05,5.61416136148761e-05
20.2865,1.60595912072459e-05,5.61775236743136e-05
20.287,1.60806405909038e-05,5.62137104301198e-05
20.2875,1.61016834861347e-05,5.62501552536243e-05
20.288,1.6122718286239e-05,5.62868395989401e-05
20.2885,1.61437434054249e-05,5.63237450081104e-05
20.289,1.61647572788539e-05,5.63608531162279e-05
20.2895,1.61857583626889e-05,5.63981456565272e-05
20.29,1.62067451341433e-05,5.643560446545e-05
20.2905,1.62277160915321e-05,5.64732114876841e-05
20.291,1.62486697543243e-05,5.65109487811776e-05
20.2915,1.62696046631975e-05,5.65487985221267e-05
20.292,1.62905193800935e-05,5.65867430099399e-05
20.2925,1.63114124882769e-05,5.66247646721779e-05
20.293,1.63322825923936e-05,5.66628460694702e-05
20.2935,1.63531283185321e-05,5.67009699004101e-05
20.294,1.63739483142851e-05,5.67391190064276e-05
20.2945,1.63947412488122e-05,5.67772763766426e-05
20.295,1.64155058129033e-05,5.6815425152699e-05
20.2955,1.64362407190421e-05,5.68535486335801e-05
20.296,1.6456944701469e-05,5.68916302804066e-05
20.2965,1.6477616516244e-05,5.69296537212186e-05
20.297,1.64982549413072e-05,5.69676027557414e-05
20.2975,1.65188587765382e-05,5.70054613601357e-05
20.298,1.65394268438135e-05,5.70432136917332e-05
20.2985,1.65599579870599e-05,5.70808440937576e-05
20.299,1.65804510723049e-05,5.71183371000298e-05
20.2995,1.66009049877236e-05,5.71556774396591e-05
20.3,1.66213186436796e-05,5.71928500417182e-05
20.3005,1.66416909727619e-05,5.72298400399028e-05
20.301,1.6662020929815e-05,5.72666327771733e-05
20.3015,1.66823074919632e-05,5.73032138103801e-05
20.302,1.67025496586277e-05,5.73395689148692e-05
20.3025,1.67227464515357e-05,5.73756840890687e-05
20.303,1.6742896914722e-05,5.74115455590532e-05
20.3035,1.67630001145213e-05,5.7447139783087e-05
20.304,1.67830551395514e-05,5.74824534561416e-05
20.3045,1.68030611006866e-05,5.75174735143883e-05
20.305,1.682301713102e-05,5.75521871396624e-05
20.3055,1.68429223858151e-05,5.75865817638976e-05
20.306,1.68627760424447e-05,5.76206450735284e-05
20.3065,1.68825773003182e-05,5.76543650138577e-05
20.307,1.6902325380794e-05,5.76877297933887e-05
20.3075,1.69220195270789e-05,5.77207278881167e-05
20.308,1.69416590041112e-05,5.77533480457801e-05
20.3085,1.69612430984289e-05,5.77855792900669e-05
20.309,1.69807711180209e-05,5.78174109247746e-05
20.3095,1.70002423921609e-05,5.78488325379198e-05
20.31,1.70196562712237e-05,5.78798340057948e-05
20.3105,1.7039012126483e-05,5.79104054969688e-05
20.311,1.70583093498906e-05,5.79405374762281e-05
20.3115,1.70775473538372e-05,5.79702207084549e-05
20.312,1.70967255708931e-05,5.79994462624376e-05
20.3125,1.71158434535312e-05,5.80282055146118e-05
20.313,1.71349004738302e-05,5.80564901527272e-05
20.3135,1.71538961231595e-05,5.80842921794362e-05
20.314,1.71728299118454e-05,5.81116039158019e-05
20.3145,1.71917013688198e-05,5.81384180047212e-05
20.315,1.72105100412496e-05,5.81647274142601e-05
20.3155,1.72292554941495e-05,5.8190525440898e-05
20.316,1.72479373099767e-05,5.82158057126782e-05
20.3165,1.72665550882077e-05,5.82405621922619e-05
20.317,1.72851084448982e-05,5.8264789179883e-05
20.3175,1.73035970122253e-05,5.8288481316201e-05
20.318,1.73220204380125e-05,5.83116335850507e-05
20.3185,1.73403783852382e-05,5.83342413160852e-05
20.319,1.73586705315268e-05,5.83563001873105e-05
20.3195,1.7376896568624e-05,5.8377806227511e-05
20.32,1.73950562018562e-05,5.83987558185616e-05
20.3205,1.74131491495741e-05,5.84191456976259e-05
20.321,1.74311751425829e-05,5.84389729592381e-05
20.3215,1.74491339235576e-05,5.84582350572668e-05
20.322,1.74670252464453e-05,5.84769298067571e-05
20.3225,1.74848488758564e-05,5.84950553856506e-05
20.323,1.75026045864428e-05,5.85126103363792e-05
20.3235,1.75202921622669e-05,5.85295935673306e-05
20.324,1.75379113961592e-05,5.85460043541832e-05
20.3245,1.75554620890684e-05,5.85618423411072e-05
20.325,1.75729440494016e-05,5.85771075418304e-05
20.3255,1.75903570923571e-05,5.85918003405653e-05
20.326,1.76077010392505e-05,5.86059214927968e-05
20.3265,1.76249757168336e-05,5.86194721259278e-05
20.327,1.76421809566085e-05,5.86324537397822e-05
20.3275,1.7659316594136e-05,5.86448682069635e-05
20.328,1.76763824683405e-05,5.86567177730685e-05
20.3285,1.76933784208106e-05,5.8668005056756e-05
20.329,1.77103042950985e-05,5.86787330496693e-05
20.3295,1.77271599360161e-05,5.8688905116214e-05
20.33,1.77439451889311e-05,5.86985249931893e-05
20.3305,1.77606598990624e-05,5.87075967892758e-05
20.331,1.77773039107761e-05,5.87161249843776e-05
20.3315,1.77938770668828e-05,5.87241144288227e-05
20.332,1.78103792079366e-05,5.873157034242e-05
20.3325,1.78268101715367e-05,5.87384983133762e-05
20.333,1.78431697916326e-05,5.87449042970725e-05
20.3335,1.78594578978325e-05,5.87507946147034e-05
20.334,1.78756743147161e-05,5.87561759517781e-05
20.3345,1.78918188611528e-05,5.87610553564872e-05
20.335,1.7907891349625e-05,5.87654402379332e-05
20.3355,1.79238915855582e-05,5.8769338364229e-05
20.336,1.79398193666579e-05,5.87727578604625e-05
20.3365,1.79556744822547e-05,5.87757072065302e-05
20.337,1.7971456712658e-05,5.87781952348386e-05
20.3375,1.79871658285198e-05,5.87802311278765e-05
20.338,1.80028015902087e-05,5.8781824415657e-05
20.3385,1.80183637471958e-05,5.87829849730317e-05
20.339,1.80338520374531e-05,5.87837230168775e-05
20.3395,1.80492661868642e-05,5.87840491031576e-05
20.34,1.80646059086506e-05,5.87839741238584e-05
20.3405,1.80798709028112e-05,5.87835093038031e-05
20.341,1.80950608555785e-05,5.87826661973455e-05
20.3415,1.811017543889e-05,5.87814566849438e-05
20.342,1.81252143098774e-05,5.8779892969618e-05
20.3425,1.81401771103732e-05,5.87779875732931e-05
20.343,1.81550634664348e-05,5.87757533330293e-05
20.3435,1.81698729878888e-05,5.87732033971439e-05
20.344,1.81846052678938e-05,5.87703512212251e-05
20.3445,1.81992598825248e-05,5.87672105640425e-05
20.345,1.82138363903771e-05,5.87637954833572e-05
20.3455,1.82283343321929e-05,5.87601203316322e-05
20.346,1.82427532305095e-05,5.87561997516499e-05
20.3465,1.82570925893302e-05,5.87520486720363e-05
20.347,1.82713518938181e-05,5.87476823026963e-05
20.3475,1.82855306100143e-05,5.8743116130162e-05
20.348,1.82996281845786e-05,5.87383659128578e-05
20.3485,1.83136440445558e-05,5.87334476762827e-05
20.349,1.83275775971654e-05,5.87283777081134e-05
20.3495,1.83414282296169e-05,5.87231725532303e-05
20.35,1.83551953089499e-05,5.87178490086679e-05
20.3505,1.8368878181899e-05,5.87124241184924e-05
20.351,1.83824761747843e-05,5.87069151686077e-05
20.3515,1.83959885934278e-05,5.87013396814931e-05
20.352,1.84094147230947e-05,5.86957154108729e-05
20.3525,1.84227538284604e-05,5.86900603363212e-05
20.353,1.84360051536039e-05,5.86843926578013e-05
20.3535,1.8449167922026e-05,5.86787307901442e-05
20.354,1.84622413366932e-05,5.86730933574645e-05
20.3545,1.8475224580108e-05,5.86674991875159e-05
20.355,1.84881168144033e-05,5.86619673059891e-05
20.3555,1.85009171814632e-05,5.86565169307503e-05
20.356,1.85136248030681e-05,5.86511674660235e-05
20.3565,1.85262387810649e-05,5.86459384965174e-05
20.357,1.85387581975613e-05,5.86408497814966e-05
20.3575,1.85511821151447e-05,5.86359212487996e-05
20.358,1.85635095771245e-05,5.86311729888025e-05
20.3585,1.85757396077979e-05,5.86266252483308e-05
20.359,1.85878712127386e-05,5.86222984245179e-05
20.3595,1.85999033791085e-05,5.86182130586121e-05
20.36,1.86118350759915e-05,5.86143898297317e-05
20.3605,1.86236652547493e-05,5.86108495485684e-05
20.361,1.86353928493996e-05,5.86076131510409e-05
20.3615,1.8647016777015e-05,5.86047016918966e-05
20.362,1.86585359381441e-05,5.86021363382654e-05
20.3625,1.86699492172527e-05,5.85999383631637e-05
20.363,1.86812554831871e-05,5.85981291389501e-05
20.3635,1.86924535896573e-05,5.85967301307351e-05
20.364,1.870354237574e-05,5.85957628897445e-05
20.3645,1.87145206664034e-05,5.85952490466383e-05
20.365,1.87253872730497e-05,5.8595210304786e-05
20.3655,1.87361409940782e-05,5.85956684335007e-05
20.366,1.87467806154666e-05,5.85966452612316e-05
20.3665,1.8757304911371e-05,5.85981626687169e-05
20.367,1.87677126447439e-05,5.86002425820986e-05
20.3675,1.87780025679687e-05,5.86029069659993e-05
20.368,1.87881734235128e-05,5.86061778165626e-05
20.3685,1.87982239445957e-05,5.86100771544563e-05
20.369,1.88081528558742e-05,5.86146270178417e-05
20.3695,1.8817958874143e-05,5.86198494553059e-05
20.37,1.88276407090507e-05,5.862576651876e-05
20.3705,1.88371970638315e-05,5.86324002563016e-05
20.371,1.88466266360506e-05,5.86397727050433e-05
20.3715,1.88559281183647e-05,5.86479058839052e-05
20.372,1.88651001992967e-05,5.86568217863731e-05
20.3725,1.88741415640237e-05,5.8666542373222e-05
20.373,1.88830508951781e-05,5.86770895652043e-05
20.3735,1.88918268736617e-05,5.86884852357047e-05
20.374,1.89004681794723e-05,5.87007512033609e-05
20.3745,1.8908973492541e-05,5.8713909224651e-05
20.375,1.89173414935815e-05,5.87279809864497e-05
20.3755,1.8925570864949e-05,5.87429880985531e-05
20.376,1.89336602915087e-05,5.87589520861737e-05
20.3765,1.89416084615138e-05,5.87758943824074e-05
20.377,1.89494140674906e-05,5.87938363206734e-05
20.3775,1.89570758071322e-05,5.88127991271292e-05
20.378,1.8964592384198e-05,5.88328039130619e-05
20.3785,1.89719625094193e-05,5.88538716672572e-05
20.379,1.89791849014106e-05,5.88760232483481e-05
20.3795,1.8986258287585e-05,5.88992793771445e-05
20.38,1.89931814050737e-05,5.89236606289447e-05
20.3805,1.89999530016484e-05,5.89491874258315e-05
20.381,1.90065718366458e-05,5.8975880028953e-05
20.3815,1.90130366818946e-05,5.90037585307919e-05
20.382,1.90193463226422e-05,5.90328428474243e-05
20.3825,1.90254995584817e-05,5.90631527107705e-05
20.383,1.90314952042775e-05,5.90947076608417e-05
20.3835,1.90373320910893e-05,5.91275270379833e-05
20.384,1.90430090670924e-05,5.91616299751211e-05
20.3845,1.90485249984943e-05,5.91970353900101e-05
20.385,1.90538787704467e-05,5.92337619774923e-05
20.3855,1.90590692879507e-05,5.92718282017638e-05
20.386,1.90640954767561e-05,5.93112522886574e-05
20.3865,1.90689562842532e-05,5.93520522179405e-05
20.387,1.90736506803552e-05,5.93942457156342e-05
20.3875,1.90781776583727e-05,5.94378502463538e-05
20.388,1.90825362358772e-05,5.94828830056748e-05
20.3885,1.90867254555541e-05,5.95293609125263e-05
20.389,1.90907443860441e-05,5.95773006016143e-05
20.3895,1.90945921227713e-05,5.96267184158766e-05
20.39,1.90982677887583e-05,5.96776303989727e-05
20.3905,1.9101770535426e-05,5.97300522878104e-05
20.391,1.91050995433777e-05,5.97839995051106e-05
20.3915,1.91082540231665e-05,5.98394871520145e-05
20.392,1.9111233216044e-05,5.98965300007339e-05
20.3925,1.91140363946902e-05,5.99551424872472e-05
20.393,1.91166628639226e-05,6.00153387040447e-05
20.3935,1.91191119613838e-05,6.00771323929235e-05
20.394,1.9121383058206e-05,6.01405369378366e-05
20.3945,1.91234755596519e-05,6.02055653577964e-05
20.395,1.91253889057301e-05,6.02722302998359e-05
20.3955,1.91271225717847e-05,6.03405440320298e-05
20.396,1.91286760690577e-05,6.0410518436576e-05
20.3965,1.91300489452234e-05,6.04821650029411e-05
20.397,1.91312407848942e-05,6.05554948210697e-05
20.3975,1.91322512100964e-05,6.0630518574661e-05
20.398,1.91330798807161e-05,6.07072465345133e-05
20.3985,1.91337264949143e-05,6.07856885519387e-05
20.399,1.91341907895101e-05,6.08658540522501e-05
20.3995,1.91344725403315e-05,6.09477520283224e-05
20.4,1.91345715625337e-05,6.103139103423e-05
20.4005,1.91344877108833e-05,6.11167791789619e-05
20.401,1.91342208800083e-05,6.12039241202168e-05
20.4015,1.91337710046139e-05,6.12928330582793e-05
20.402,1.91331380596624e-05,6.13835127299796e-05
20.4025,1.9132322060518e-05,6.14759694027366e-05
20.403,1.9131323063057e-05,6.1570208868688e-05
20.4035,1.91301411637407e-05,6.16662364389075e-05
20.404,1.91287764996546e-05,6.1764056937712e-05
20.4045,1.91272292485112e-05,6.18636746970604e-05
20.405,1.91254996286179e-05,6.19650935510456e-05
20.4055,1.91235878988104e-05,6.20683168304835e-05
20.406,1.91214943583507e-05,6.21733473576002e-05
20.4065,1.91192193467916e-05,6.22801874408209e-05
20.407,1.91167632438055e-05,6.23888388696627e-05
20.4075,1.9114126468981e-05,6.24993029097349e-05
20.408,1.91113094815834e-05,6.26115802978495e-05
20.4085,1.91083127802829e-05,6.27256712372432e-05
20.409,1.91051369028482e-05,6.28415753929164e-05
20.4095,1.91017824258063e-05,6.29592918870888e-05
20.41,1.90982499640698e-05,6.30788192947765e-05
20.4105,1.90945401705295e-05,6.32001556394915e-05
20.411,1.90906537356159e-05,6.33232983890673e-05
20.4115,1.9086591386827e-05,6.34482444516137e-05
20.412,1.9082353888225e-05,6.3574990171603e-05
20.4125,1.9077942039902e-05,6.37035313260911e-05
20.413,1.90733566774145e-05,6.38338631210777e-05
20.4135,1.90685986711896e-05,6.39659801880077e-05
20.414,1.90636689259016e-05,6.40998765804195e-05
20.4145,1.90585683798211e-05,6.42355457707423e-05
20.415,1.90532980041374e-05,6.43729806472473e-05
20.4155,1.9047858802255e-05,6.4512173511157e-05
20.416,1.9042251809064e-05,6.46531160739164e-05
20.4165,1.90364780901878e-05,6.479579945463e-05
20.417,1.9030538741206e-05,6.49402141776685e-05
20.4175,1.90244348868552e-05,6.50863501704496e-05
20.418,1.90181676802091e-05,6.52341967613954e-05
20.4185,1.90117383018372e-05,6.53837426780705e-05
20.419,1.90051479589452e-05,6.55349760455042e-05
20.4195,1.89983978844973e-05,6.56878843846991e-05
20.42,1.89914893363225e-05,6.58424546113303e-05
20.4205,1.89844235962053e-05,6.59986730346377e-05
20.421,1.89772019689635e-05,6.61565253565139e-05
20.4215,1.89698257815142e-05,6.63159966707908e-05
20.422,1.89622963819279e-05,6.64770714627282e-05
20.4225,1.89546151384749e-05,6.66397336087053e-05
20.423,1.89467834386629e-05,6.68039663761194e-05
20.4235,1.89388026882681e-05,6.69697524234922e-05
20.424,1.89306743103609e-05,6.71370738007873e-05
20.4245,1.89223997443277e-05,6.73059119499391e-05
20.425,1.89139804448894e-05,6.74762477055967e-05
20.4255,1.89054178811184e-05,6.76480612960822e-05
20.426,1.8896713535455e-05,6.78213323445671e-05
20.4265,1.88878689027243e-05,6.79960398704659e-05
20.427,1.88788854891551e-05,6.81721622910496e-05
20.4275,1.88697648114007e-05,6.83496774232799e-05
20.428,1.88605083955645e-05,6.85285624858644e-05
20.4285,1.88511177762297e-05,6.87087941015345e-05
20.429,1.8841594495495e-05,6.88903482995458e-05
20.4295,1.88319401020169e-05,6.90732005184029e-05
20.43,1.88221561500595e-05,6.92573256088065e-05
20.4305,1.88122441985526e-05,6.94426978368262e-05
20.431,1.88022058101589e-05,6.96292908872964e-05
20.4315,1.87920425503506e-05,6.98170778674362e-05
20.432,1.8781755986497e-05,7.00060313106935e-05
20.4325,1.87713476869625e-05,7.01961231808119e-05
20.433,1.87608192202161e-05,7.03873248761209e-05
20.4335,1.8750172153953e-05,7.05796072340463e-05
20.434,1.87394080542289e-05,7.07729405358434e-05
20.4345,1.87285284846067e-05,7.09672945115469e-05
20.435,1.87175350053167e-05,7.11626383451404e-05
20.4355,1.87064291724314e-05,7.13589406799401e-05
20.436,1.86952125370537e-05,7.1556169624193e-05
20.4365,1.86838866445201e-05,7.17542927568858e-05
20.437,1.86724530336201e-05,7.19532771337628e-05
20.4375,1.86609132358297e-05,7.21530892935498e-05
20.438,1.86492687745616e-05,7.23536952643815e-05
20.4385,1.86375211644318e-05,7.2555060570429e-05
20.439,1.86256719105419e-05,7.27571502387248e-05
20.4395,1.86137225077787e-05,7.29599288061823e-05
20.44,1.86016744401304e-05,7.31633603268053e-05
20.4405,1.85895291800208e-05,7.33674083790862e-05
20.441,1.85772881876605e-05,7.35720360735876e-05
20.4415,1.85649529104163e-05,7.37772060607057e-05
20.442,1.85525247822e-05,7.39828805386114e-05
20.4425,1.85400052228745e-05,7.41890212613672e-05
20.443,1.85273956376806e-05,7.43955895472148e-05
20.4435,1.85146974166827e-05,7.46025462870333e-05
20.444,1.85019119342346e-05,7.48098519529629e-05
20.4445,1.84890405484659e-05,7.50174666071918e-05
20.445,1.84760846007896e-05,7.52253499109043e-05
20.4455,1.84630454154297e-05,7.54334611333859e-05
20.446,1.84499242989713e-05,7.56417591612832e-05
20.4465,1.84367225399318e-05,7.5850202508015e-05
20.447,1.84234414083534e-05,7.60587493233314e-05
20.4475,1.84100821554182e-05,7.62673574030178e-05
20.448,1.83966460130845e-05,7.64759841987395e-05
20.4485,1.83831341937444e-05,7.66845868280234e-05
20.449,1.83695478899046e-05,7.68931220843726e-05
20.4495,1.83558882738866e-05,7.71015464475096e-05
20.45,1.83421564975496e-05,7.73098160937444e-05
20.4505,1.83283536920343e-05,7.75178869064633e-05
20.451,1.8314480967527e-05,7.77257144867331e-05
20.4515,1.83005394130454e-05,7.79332541640193e-05
20.452,1.82865300962446e-05,7.81404610070125e-05
20.4525,1.82724540632443e-05,7.834728983456e-05
20.453,1.82583123384767e-05,7.85536952266997e-05
20.4535,1.82441059245554e-05,7.8759631535793e-05
20.454,1.82298358021658e-05,7.89650528977534e-05
20.4545,1.8215502929976e-05,7.91699132433686e-05
20.455,1.82011082445706e-05,7.93741663097142e-05
20.4555,1.81866526604044e-05,7.95777656516549e-05
20.456,1.81721370697796e-05,7.97806646534334e-05
20.4565,1.81575623428436e-05,7.99828165403427e-05
20.457,1.81429293276089e-05,8.01841743904818e-05
20.4575,1.81282388499952e-05,8.03846911465902e-05
20.458,1.81134917138931e-05,8.05843196279621e-05
20.4585,1.80986887012487e-05,8.07830125424351e-05
20.459,1.80838305721707e-05,8.09807224984525e-05
20.4595,1.80689180650575e-05,8.11774020171956e-05
20.46,1.80539518967461e-05,8.13730035447833e-05
20.4605,1.80389327626815e-05,8.15674794645359e-05
20.461,1.80238613371064e-05,8.17607821092997e-05
20.4615,1.80087382732712e-05,8.1952863773829e-05
20.462,1.79935642036654e-05,8.21436767272228e-05
20.4625,1.79783397402673e-05,8.23331732254122e-05
20.463,1.7963065474815e-05,8.25213055236956e-05
20.4635,1.79477419790971e-05,8.27080258893185e-05
20.464,1.79323698052629e-05,8.28932866140948e-05
20.4645,1.7916949486152e-05,8.30770400270665e-05
20.465,1.79014815356439e-05,8.32592385071982e-05
20.4655,1.78859664490265e-05,8.34398344961036e-05
20.466,1.78704047033832e-05,8.36187805108011e-05
20.4665,1.7854796757999e-05,8.37960291564936e-05
20.467,1.78391430547847e-05,8.39715331393706e-05
20.4675,1.78234440187189e-05,8.41452452794282e-05
20.468,1.78077000583079e-05,8.43171185233025e-05
20.4685,1.77919115660626e-05,8.44871059571136e-05
20.469,1.77760789189927e-05,8.46551608193152e-05
20.4695,1.77602024791171e-05,8.48212365135464e-05
20.47,1.77442825939905e-05,8.49852866214815e-05
20.4705,1.77283195972465e-05,8.51472649156728e-05
20.471,1.7712313809155e-05,8.53071253723838e-05
20.4715,1.76962655371951e-05,8.5464822184408e-05
20.472,1.76801750766427e-05,8.56203097738693e-05
20.4725,1.76640427111709e-05,8.57735428050004e-05
20.473,1.76478687134645e-05,8.59244761968952e-05
20.4735,1.76316533458466e-05,8.6073065136231e-05
20.474,1.76153968609173e-05,8.62192650899566e-05
20.4745,1.75990995022035e-05,8.63630318179432e-05
20.475,1.75827615048197e-05,8.65043213855912e-05
20.4755,1.75663830961389e-05,8.66430901763915e-05
20.476,1.75499644964725e-05,8.67792949044345e-05
20.4765,1.75335059197602e-05,8.6912892626862e-05
20.477,1.75170075742674e-05,8.70438407562582e-05
20.4775,1.75004696632912e-05,8.71720970729735e-05
20.478,1.74838923858735e-05,8.72976197373774e-05
20.4785,1.74672759375214e-05,8.74203673020353e-05
20.479,1.74506205109332e-05,8.75402987238041e-05
20.4795,1.74339262967313e-05,8.76573733758445e-05
20.48,1.7417193484199e-05,8.77715510595442e-05
20.4805,1.74004222620222e-05,8.78827920163505e-05
20.481,1.73836128190347e-05,8.79910569395084e-05
20.4815,1.73667653449664e-05,8.80963069857019e-05
20.482,1.73498800311931e-05,8.81985037865966e-05
20.4825,1.73329570714882e-05,8.82976094602816e-05
20.483,1.7315996662774e-05,8.83935866226087e-05
20.4835,1.72989990058737e-05,8.84863983984274e-05
20.484,1.72819643062608e-05,8.85760084327147e-05
20.4845,1.72648927748077e-05,8.86623809015975e-05
20.485,1.72477846285315e-05,8.87454805232656e-05
20.4855,1.72306400913354e-05,8.88252725687752e-05
20.486,1.7213459394747e-05,8.89017228727371e-05
20.4865,1.7196242778651e-05,8.89747978438915e-05
20.487,1.71789904920161e-05,8.90444644755641e-05
20.4875,1.71617027936161e-05,8.91106903560019e-05
20.488,1.71443799527435e-05,8.91734436785874e-05
20.4885,1.71270222499148e-05,8.92326932519271e-05
20.489,1.71096299775689e-05,8.92884085098146e-05
20.4895,1.70922034407541e-05,8.93405595210643e-05
20.49,1.70747429578071e-05,8.93891169992154e-05
20.4905,1.705724886102e-05,8.94340523121039e-05
20.491,1.70397214972963e-05,8.94753374913019e-05
20.4915,1.70221612287947e-05,8.95129452414224e-05
20.492,1.70045684335595e-05,8.95468489492883e-05
20.4925,1.69869435061375e-05,8.95770226929645e-05
20.493,1.6969286858181e-05,8.96034412506517e-05
20.4935,1.69515989190357e-05,8.96260801094404e-05
20.494,1.69338801363132e-05,8.96449154739238e-05
20.4945,1.69161309764488e-05,8.96599242746676e-05
20.495,1.68983519252429e-05,8.96710841765354e-05
20.4955,1.68805434883868e-05,8.96783735868668e-05
20.496,1.68627061919724e-05,8.96817716635075e-05
20.4965,1.68448405829852e-05,8.96812583226878e-05
20.497,1.68269472297807e-05,8.96768142467473e-05
20.4975,1.68090267225442e-05,8.96684208917045e-05
20.498,1.67910796737328e-05,8.96560604946663e-05
20.4985,1.67731067185e-05,8.96397160810765e-05
20.499,1.67551085151016e-05,8.9619371471798e-05
20.4995,1.67370857452833e-05,8.9595011290028e-05
20.5,1.67190391146494e-05,8.95666209680394e-05
20.5005,1.67009693530109e-05,8.95341867537477e-05
20.501,1.66828772147148e-05,8.94976957170974e-05
20.5015,1.66647634789519e-05,8.94571357562634e-05
20.502,1.66466289500443e-05,8.94124956036645e-05
20.5025,1.66284744577124e-05,8.93637648317826e-05
20.503,1.66103008573204e-05,8.93109338587822e-05
20.5035,1.65921090301007e-05,8.92539939539274e-05
20.504,1.65738998833576e-05,8.91929372427876e-05
20.5045,1.65556743506497e-05,8.912775671223e-05
20.505,1.6537433391952e-05,8.90584462151907e-05
20.5055,1.65191779937969e-05,8.89850004752218e-05
20.506,1.65009091693948e-05,8.8907415090808e-05
20.5065,1.64826279587352e-05,8.88256865394487e-05
20.507,1.64643354286664e-05,8.87398121815014e-05
20.5075,1.64460326729568e-05,8.86497902637822e-05
20.508,1.64277208123353e-05,8.85556199229201e-05
20.5085,1.64094009945132e-05,8.84573011884611e-05
20.509,1.6391074394186e-05,8.8354834985721e-05
20.5095,1.6372742213017e-05,8.82482231383826e-05
20.51,1.63544056796027e-05,8.81374683708362e-05
20.5105,1.63360660494195e-05,8.8022574310261e-05
20.511,1.63177246047538e-05,8.79035454884465e-05
20.5115,1.62993826546143e-05,8.77803873433511e-05
20.512,1.6281041534629e-05,8.76531062203964e-05
20.5125,1.6262702606925e-05,8.75217093734949e-05
20.513,1.62443672599936e-05,8.73862049658094e-05
20.5135,1.62260369085398e-05,8.72466020702404e-05
20.514,1.62077129933171e-05,8.71029106696408e-05
20.5145,1.61893969809475e-05,8.69551416567537e-05
20.515,1.61710903637272e-05,8.6803306833873e-05
20.5155,1.61527946594179e-05,8.66474189122232e-05
20.516,1.61345114110248e-05,8.64874915110583e-05
20.5165,1.61162421865595e-05,8.63235391564775e-05
20.517,1.60979885787898e-05,8.61555772799558e-05
20.5175,1.60797522049757e-05,8.59836222165919e-05
20.518,1.60615347065919e-05,8.58076912030689e-05
20.5185,1.60433377490361e-05,8.56278023753309e-05
20.519,1.6025163021325e-05,8.54439747659743e-05
20.5195,1.6007012235776e-05,8.52562283013546e-05
20.52,1.59888871276771e-05,8.50645837984095e-05
20.5205,1.59707894549424e-05,8.48690629611992e-05
20.521,1.5952720997756e-05,8.4669688377165e-05
20.5215,1.59346835582024e-05,8.44664835131086e-05
20.522,1.59166789598845e-05,8.42594727108919e-05
20.5225,1.58987090475287e-05,8.4048681182861e-05
20.523,1.58807756865768e-05,8.38341350069944e-05
20.5235,1.5862880762766e-05,8.36158611217791e-05
20.524,1.58450261816958e-05,8.33938873208141e-05
20.5245,1.58272138683815e-05,8.3168242247145e-05
20.525,1.58094457667965e-05,8.29389553873293e-05
20.5255,1.5791723839401e-05,8.27060570652347e-05
20.526,1.57740500666587e-05,8.24695784355713e-05
20.5265,1.57564264465415e-05,8.22295514771569e-05
20.527,1.57388549940219e-05,8.19860089859181e-05
20.5275,1.57213377405537e-05,8.17389845676255e-05
20.528,1.57038767335408e-05,8.14885126303645e-05
20.5285,1.5686474035795e-05,8.12346283767406e-05
20.529,1.56691317249819e-05,8.09773677958217e-05
20.5295,1.5651851893056e-05,8.0716767654815e-05
20.53,1.56346366456846e-05,8.04528654904807e-05
20.5305,1.56174881016607e-05,8.01856996002831e-05
20.531,1.56004083923051e-05,7.99153090332791e-05
20.5315,1.55833996608567e-05,7.96417335807469e-05
20.532,1.55664640618531e-05,7.93650137665543e-05
20.5325,1.55496037604985e-05,7.90851908372706e-05
20.533,1.55328209320211e-05,7.88023067520231e-05
20.5335,1.55161177610193e-05,7.85164041721013e-05
20.534,1.54994964407952e-05,7.82275264503117e-05
20.5345,1.5482959172678e-05,7.79357176200881e-05
20.535,1.54665081653346e-05,7.76410223843592e-05
20.5355,1.54501456340694e-05,7.73434861041804e-05
20.536,1.54338738001124e-05,7.70431547871323e-05
20.5365,1.54176948898969e-05,7.67400750754931e-05
20.537,1.54016111343254e-05,7.64342942341879e-05
20.5375,1.5385624768026e-05,7.61258601385223e-05
20.538,1.5369738028598e-05,7.58148212617044e-05
20.5385,1.53539531558486e-05,7.55012266621599e-05
20.539,1.53382723910191e-05,7.51851259706479e-05
20.5395,1.53226979760034e-05,7.48665693771797e-05
20.54,1.53072321525579e-05,7.45456076177468e-05
20.5405,1.52918771615027e-05,7.42222919608633e-05
20.541,1.52766352419161e-05,7.38966741939257e-05
20.5415,1.52615086303213e-05,7.35688066093963e-05
20.542,1.52464995598668e-05,7.32387419908133e-05
20.5425,1.52316102595e-05,7.29065335986338e-05
20.543,1.5216842953135e-05,7.25722351559133e-05
20.5435,1.5202199858815e-05,7.22359008338265e-05
20.544,1.51876831878699e-05,7.18975852370367e-05
20.5445,1.51732951440689e-05,7.15573433889156e-05
20.545,1.51590379227698e-05,7.1215230716623e-05
20.5455,1.51449137100644e-05,7.08713030360493e-05
20.546,1.51309246819214e-05,7.0525616536629e-05
20.5465,1.5117073003327e-05,7.01782277660308e-05
20.547,1.51033608274237e-05,6.98291936147326e-05
20.5475,1.50897902946478e-05,6.94785713004868e-05
20.548,1.50763635318671e-05,6.91264183526867e-05
20.5485,1.50630826515172e-05,6.87727925966386e-05
20.549,1.50499497507389e-05,6.84177521377512e-05
20.5495,1.50369669105162e-05,6.80613553456483e-05
20.55,1.50241361948154e-05,6.77036608382142e-05
20.5505,1.50114596497251e-05,6.73447274655809e-05
20.551,1.49989393025993e-05,6.69846142940633e-05
20.5515,1.49865771612013e-05,6.66233805900538e-05
20.552,1.49743752128512e-05,6.62610858038812e-05
20.5525,1.49623354235766e-05,6.58977895536437e-05
20.553,1.49504597372662e-05,6.55335516090229e-05
20.5535,1.49387500748281e-05,6.51684318750869e-05
20.554,1.49272083333521e-05,6.48024903760883e-05
20.5545,1.49158363852778e-05,6.4435787239266e-05
20.555,1.49046360775672e-05,6.40683826786551e-05
20.5555,1.48936092308838e-05,6.37003369789143e-05
20.556,1.48827576387777e-05,6.33317104791742e-05
20.5565,1.48720830668773e-05,6.29625635569153e-05
20.557,1.4861587252088e-05,6.25929566118794e-05
20.5575,1.48512719017979e-05,6.22229500500224e-05
20.558,1.48411386930909e-05,6.18526042675129e-05
20.5585,1.48311892719681e-05,6.14819796347828e-05
20.559,1.48214252525768e-05,6.11111364806358e-05
20.5595,1.48118482164479e-05,6.07401350764182e-05
20.56,1.48024597117423e-05,6.03690356202601e-05
20.5605,1.47932612525061e-05,5.99978982213896e-05
20.561,1.47842543179359e-05,5.96267828845279e-05
20.5615,1.4775440351653e-05,5.92557494943696e-05
20.562,1.47668207609881e-05,5.88848578001543e-05
20.5625,1.47583969162775e-05,5.85141674003356e-05
20.563,1.47501701501683e-05,5.81437377273518e-05
20.5635,1.47421417569368e-05,5.77736280325055e-05
20.564,1.47343129918174e-05,5.74038973709572e-05
20.5645,1.4726685070343e-05,5.70346045868382e-05
20.565,1.47192591676988e-05,5.6665808298489e-05
20.5655,1.47120364180874e-05,5.62975668838286e-05
20.566,1.4705017914107e-05,5.59299384658599e-05
20.5665,1.46982047061422e-05,5.55629808983172e-05
20.567,1.46915978017675e-05,5.51967517514604e-05
20.5675,1.46851981651647e-05,5.48313082980214e-05
20.568,1.46790067165523e-05,5.44667074993073e-05
20.5685,1.46730243316294e-05,5.41030059914661e-05
20.569,1.46672518410319e-05,5.37402600719179e-05
20.5695,1.46616900298039e-05,5.33785256859575e-05
20.57,1.46563396368816e-05,5.30178584135317e-05
20.5705,1.46512013545929e-05,5.26583134561959e-05
20.571,1.46462758281703e-05,5.22999456242528e-05
20.5715,1.46415636552792e-05,5.19428093240795e-05
20.572,1.46370653855613e-05,5.15869585456427e-05
20.5725,1.46327815201933e-05,5.12324468502092e-05
20.573,1.46287125114607e-05,5.08793273582534e-05
20.5735,1.46248587623483e-05,5.05276527375641e-05
20.574,1.46212206261452e-05,5.01774751915559e-05
20.5745,1.46177984060676e-05,4.98288464477858e-05
20.575,1.46145923548959e-05,4.948181774668e-05
20.5755,1.46116026746295e-05,4.91364398304716e-05
20.576,1.46088295161574e-05,4.87927629323538e-05
20.5765,1.46062729789446e-05,4.84508367658505e-05
20.577,1.4603933110736e-05,4.81107105144067e-05
20.5775,1.46018099072763e-05,4.77724328212026e-05
20.578,1.45999033120463e-05,4.74360517791925e-05
20.5785,1.45982132160164e-05,4.71016149213723e-05
20.579,1.45967394574166e-05,4.67691692112774e-05
20.5795,1.45954818215235e-05,4.64387610337136e-05
20.58,1.45944400404635e-05,4.61104361857226e-05
20.5805,1.45936137930345e-05,4.57842398677849e-05
20.581,1.45930027045426e-05,4.54602166752618e-05
20.5815,1.45926063466575e-05,4.51384105900771e-05
20.582,1.45924242372837e-05,4.48188649726413e-05
20.5825,1.45924558404491e-05,4.45016225540195e-05
20.583,1.45927005662098e-05,4.4186725428343e-05
20.5835,1.45931577705726e-05,4.38742150454672e-05
20.584,1.45938267554329e-05,4.35641322038755e-05
20.5845,1.45947067685299e-05,4.32565170438313e-05
20.585,1.45957970034182e-05,4.29514090407775e-05
20.5855,1.45970965994554e-05,4.26488469989851e-05
20.586,1.45986046418069e-05,4.23488690454511e-05
20.5865,1.46003201614667e-05,4.20515126240465e-05
20.587,1.46022421352943e-05,4.1756814489914e-05
20.5875,1.46043694860682e-05,4.14648107041162e-05
20.588,1.46067010825558e-05,4.11755366285341e-05
20.5885,1.46092357395991e-05,4.0889026921016e-05
20.589,1.46119722182159e-05,4.06053155307764e-05
20.5895,1.46149092257178e-05,4.03244356940452e-05
20.59,1.46180454158424e-05,4.00464199299657e-05
20.5905,1.46213793889013e-05,3.97713000367426e-05
20.591,1.4624909691943e-05,3.94991070880372e-05
20.5915,1.46286348189302e-05,3.92298714296111e-05
20.592,1.46325532109307e-05,3.8963622676216e-05
20.5925,1.46366632563231e-05,3.87003897087295e-05
20.593,1.46409632910152e-05,3.84402006715349e-05
20.5935,1.46454515986761e-05,3.81830829701455e-05
20.594,1.46501264109806e-05,3.79290632690696e-05
20.5945,1.46549859078673e-05,3.76781674899176e-05
20.595,1.46600282178085e-05,3.74304208097473e-05
20.5955,1.46652514180929e-05,3.71858476596473e-05
20.596,1.46706535351204e-05,3.69444717235561e-05
20.5965,1.46762325447098e-05,3.67063159373153e-05
20.597,1.46819863724179e-05,3.6471402487955e-05
20.5975,1.46879128938708e-05,3.62397528132081e-05
20.598,1.46940099351074e-05,3.60113876012541e-05
20.5985,1.4700275272934e-05,3.57863267906871e-05
20.599,1.47067066352905e-05,3.55645895707078e-05
20.5995,1.47133017016284e-05,3.53461943815358e-05
20.6,1.47200581032995e-05,3.51311589150413e-05
20.6005,1.4726973423956e-05,3.49195001155915e-05
20.601,1.47340451999612e-05,3.47112341811112e-05
20.6015,1.47412709208124e-05,3.45063765643536e-05
20.602,1.47486480295739e-05,3.43049419743785e-05
20.6025,1.47561739233223e-05,3.41069443782352e-05
20.603,1.47638459536024e-05,3.39123970028481e-05
20.6035,1.47716614268961e-05,3.37213123370992e-05
20.604,1.4779617605102e-05,3.35337021341079e-05
20.6045,1.47877117060281e-05,3.3349577413701e-05
20.605,1.47959409038968e-05,3.31689484650732e-05
20.6055,1.48043023298615e-05,3.29918248496323e-05
20.606,1.4812793072537e-05,3.28182154040263e-05
20.6065,1.48214101785419e-05,3.26481282433502e-05
20.607,1.48301506530534e-05,3.24815707645284e-05
20.6075,1.48390114603752e-05,3.23185496498694e-05
20.608,1.48479895245176e-05,3.21590708707911e-05
20.6085,1.48570817297904e-05,3.20031396917127e-05
20.609,1.48662849214081e-05,3.18507606741109e-05
20.6095,1.48755959061071e-05,3.17019376807379e-05
20.61,1.48850114527763e-05,3.15566738799978e-05
20.6105,1.48945282930987e-05,3.14149717504802e-05
20.611,1.49041431222071e-05,3.12768330856471e-05
20.6115,1.49138525993514e-05,3.11422589986699e-05
20.612,1.49236533485789e-05,3.10112499274157e-05
20.6125,1.4933541959428e-05,3.08838056395781e-05
20.613,1.49435149876345e-05,3.07599252379502e-05
20.6135,1.4953568955852e-05,3.06396071658373e-05
20.614,1.49637003543853e-05,3.05228492126058e-05
20.6145,1.49739056419384e-05,3.04096485193656e-05
20.615,1.49841812463754e-05,3.03000015847831e-05
20.6155,1.49945235654968e-05,3.01939042710217e-05
20.616,1.50049289678284e-05,3.00913518098067e-05
20.6165,1.50153937934257e-05,2.99923388086129e-05
20.617,1.50259143546918e-05,2.989685925697e-05
20.6175,1.50364869372097e-05,2.98049065328855e-05
20.618,1.50471078005884e-05,2.97164734093803e-05
20.6185,1.50577731793244e-05,2.96315520611356e-05
20.619,1.50684792836759e-05,2.95501340712476e-05
20.6195,1.50792223005523e-05,2.94722104380881e-05
20.62,1.50899983944169e-05,2.9397771582267e-05
20.6205,1.51008037082042e-05,2.93268073536946e-05
20.621,1.51116343642505e-05,2.92593070387403e-05
20.6215,1.51224864652387e-05,2.91952593674847e-05
20.622,1.51333560951561e-05,2.91346525210626e-05
20.6225,1.5144239320266e-05,2.90774741390926e-05
20.623,1.51551321900917e-05,2.90237113271914e-05
20.6235,1.51660307384144e-05,2.89733506645684e-05
20.624,1.51769309842826e-05,2.89263782116987e-05
20.6245,1.5187828933034e-05,2.88827795180697e-05
20.625,1.51987205773298e-05,2.88425396299988e-05
20.6255,1.52096018982001e-05,2.8805643098519e-05
20.626,1.52204688660997e-05,2.87720739873281e-05
20.6265,1.52313174419762e-05,2.87418158807983e-05
20.627,1.5242143578347e-05,2.8714851892043e-05
20.6275,1.52529432203871e-05,2.86911646710359e-05
20.628,1.52637123070258e-05,2.86707364127797e-05
20.6285,1.52744467720532e-05,2.86535488655204e-05
20.629,1.5285142545235e-05,2.86395833390012e-05
20.6295,1.52957955534351e-05,2.86288207127551e-05
20.63,1.53064017217467e-05,2.8621241444429e-05
20.6305,1.531695697463e-05,2.86168255781365e-05
20.631,1.53274572370568e-05,2.86155527528346e-05
20.6315,1.53378984356608e-05,2.86174022107198e-05
20.632,1.53482764998935e-05,2.86223528056403e-05
20.6325,1.53585873631847e-05,2.86303830115179e-05
20.633,1.53688269641068e-05,2.86414709307772e-05
20.6335,1.53789912475421e-05,2.86555943027763e-05
20.634,1.53890761658529e-05,2.8672730512236e-05
20.6345,1.5399077680053e-05,2.86928565976616e-05
20.635,1.54089917609798e-05,2.87159492597542e-05
20.6355,1.5418814390467e-05,2.87419848698073e-05
20.636,1.54285415625165e-05,2.8770939478084e-05
20.6365,1.54381692844694e-05,2.88027888221724e-05
20.637,1.54476935781748e-05,2.88375083353148e-05
20.6375,1.54571104811562e-05,2.88750731547078e-05
20.638,1.54664160477756e-05,2.89154581297709e-05
20.6385,1.5475606350393e-05,2.89586378303801e-05
20.639,1.54846774805228e-05,2.90045865550643e-05
20.6395,1.5493625549985e-05,2.90532783391628e-05
20.64,1.55024466920515e-05,2.91046869629412e-05
20.6405,1.55111370625863e-05,2.91587859596639e-05
20.641,1.55196928411801e-05,2.92155486236217e-05
20.6415,1.55281102322767e-05,2.92749480181112e-05
20.642,1.55363854662927e-05,2.93369569833671e-05
20.6425,1.55445148007284e-05,2.94015481444418e-05
20.643,1.55524945212701e-05,2.94686939190338e-05
20.6435,1.55603209428831e-05,2.95383665252615e-05
20.644,1.55679904108949e-05,2.96105379893824e-05
20.6445,1.55754993020685e-05,2.96851801534557e-05
20.645,1.55828440256657e-05,2.97622646829477e-05
20.6455,1.55900210244989e-05,2.98417630742803e-05
20.646,1.55970267759731e-05,2.99236466623219e-05
20.6465,1.56038577931166e-05,3.00078866278208e-05
20.647,1.56105106255997e-05,3.00944540047812e-05
20.6475,1.56169818607424e-05,3.01833196877835e-05
20.648,1.56232681245097e-05,3.02744544392475e-05
20.6485,1.56293660824948e-05,3.03678288966412e-05
20.649,1.56352724408887e-05,3.04634135796343e-05
20.6495,1.56409839474382e-05,3.0561178897198e-05
20.65,1.56464973923889e-05,3.06610951546509e-05
20.6505,1.56518096094162e-05,3.07631325606526e-05
20.651,1.56569174765411e-05,3.08672612341441e-05
20.6515,1.56618179170333e-05,3.09734512112372e-05
20.652,1.5666507900299e-05,3.10816724520511e-05
20.6525,1.56709844427556e-05,3.11918948474986e-05
20.653,1.56752446086914e-05,3.13040882260208e-05
20.6535,1.5679285511111e-05,3.14182223602699e-05
20.654,1.56831043125664e-05,3.1534266973742e-05
20.6545,1.56866982259736e-05,3.16521917473579e-05
20.655,1.56900645154136e-05,3.17719663259917e-05
20.6555,1.56932004969198e-05,3.18935603249491e-05
20.656,1.5696103539249e-05,3.20169433363921e-05
20.6565,1.56987710646379e-05,3.21420849357121e-05
20.657,1.57012005495433e-05,3.22689546878489e-05
20.6575,1.57033895253676e-05,3.23975221535569e-05
20.658,1.57053355791681e-05,3.25277568956166e-05
20.6585,1.57070363543505e-05,3.26596284849913e-05
20.659,1.57084895513466e-05,3.27931065069276e-05
20.6595,1.57096929282768e-05,3.29281605669991e-05
20.66,1.57106443015964e-05,3.30647602970935e-05
20.6605,1.57113415467262e-05,3.32028753613394e-05
20.661,1.57117825986674e-05,3.33424754619747e-05
20.6615,1.57119654526016e-05,3.34835303451543e-05
20.662,1.57118881644737e-05,3.36260098066951e-05
20.6625,1.57115488515605e-05,3.37698836977599e-05
20.663,1.5710945693023e-05,3.39151219304762e-05
20.6635,1.57100769304432e-05,3.40616944834913e-05
20.664,1.57089408683455e-05,3.42095714074608e-05
20.6645,1.57075358747022e-05,3.43587228304706e-05
20.665,1.57058603814234e-05,3.45091189633902e-05
20.6655,1.57039128848311e-05,3.46607301051581e-05
20.666,1.57016919461172e-05,3.48135266479949e-05
20.6665,1.56991961917862e-05,3.49674790825468e-05
20.667,1.56964243140806e-05,3.51225580029549e-05
20.6675,1.56933750713905e-05,3.52787341118515e-05
20.668,1.56900472886461e-05,3.5435978225281e-05
20.6685,1.56864398576936e-05,3.5594261277545e-05
20.669,1.56825517376533e-05,3.57535543259699e-05
20.6695,1.5678381955261e-05,3.59138285555961e-05
20.67,1.56739296051907e-05,3.60750552837886e-05
20.6705,1.56691938503601e-05,3.62372059647667e-05
20.671,1.56641739222184e-05,3.64002521940532e-05
20.6715,1.56588691210145e-05,3.65641657128419e-05
20.672,1.56532788160485e-05,3.67289184122825e-05
20.6725,1.56474024459039e-05,3.68944823376828e-05
20.673,1.56412395186614e-05,3.70608296926272e-05
20.6735,1.5634789612095e-05,3.72279328430114e-05
20.674,1.56280523738485e-05,3.73957643209922e-05
20.6745,1.56210275215954e-05,3.75642968288534e-05
20.675,1.56137148431787e-05,3.77335032427848e-05
20.6755,1.5606114196733e-05,3.79033566165764e-05
20.676,1.55982255107887e-05,3.80738301852251e-05
20.6765,1.55900487843563e-05,3.82448973684538e-05
20.677,1.55815840869938e-05,3.84165317741426e-05
20.6775,1.55728315588544e-05,3.85887072016699e-05
20.678,1.55637914107165e-05,3.87613976451636e-05
20.6785,1.55544639239949e-05,3.89345772966614e-05
20.679,1.55448494507343e-05,3.91082205491787e-05
20.6795,1.55349484135843e-05,3.92823019996848e-05
20.68,1.55247613057566e-05,3.94567964519855e-05
20.6805,1.55142886909637e-05,3.96316789195134e-05
20.681,1.55035312033398e-05,3.98069246280256e-05
20.6815,1.54924895473442e-05,3.99825090182093e-05
20.682,1.54811644976452e-05,4.01584077481956e-05
20.6825,1.54695568989877e-05,4.03345966959839e-05
20.683,1.54576676660405e-05,4.05110519617769e-05
20.6835,1.54454977832266e-05,4.06877498702274e-05
20.684,1.54330483045339e-05,4.08646669726e-05
20.6845,1.54203203533083e-05,4.10417800488474e-05
20.685,1.54073151220268e-05,4.12190661096036e-05
20.6855,1.53940338720527e-05,4.1396502398096e-05
20.686,1.53804779333717e-05,4.15740663919768e-05
20.6865,1.53666487043095e-05,4.17517358050764e-05
20.687,1.53525476512303e-05,4.19294885890787e-05
20.6875,1.53381763082173e-05,4.21073029351205e-05
20.688,1.53235362767349e-05,4.22851572753155e-05
20.6885,1.53086292252721e-05,4.24630302842037e-05
20.689,1.52934568889687e-05,4.26409008801288e-05
20.6895,1.52780210692227e-05,4.28187482265415e-05
20.69,1.52623236332807e-05,4.29965517332337e-05
20.6905,1.52463665138092e-05,4.31742910575009e-05
20.691,1.52301517084496e-05,4.33519461052372e-05
20.6915,1.5213681279354e-05,4.35294970319617e-05
20.692,1.5196957352704e-05,4.37069242437788e-05
20.6925,1.51799821182118e-05,4.38842083982742e-05
20.693,1.51627578286039e-05,4.40613304053464e-05
20.6935,1.51452867990867e-05,4.42382714279759e-05
20.694,1.51275714067956e-05,4.44150128829337e-05
20.6945,1.5109614090227e-05,4.45915364414297e-05
20.695,1.50914173486535e-05,4.47678240297024e-05
20.6955,1.5072983741522e-05,4.49438578295507e-05
20.696,1.50543158878369e-05,4.51196202788095e-05
20.6965,1.50354164655264e-05,4.52950940717691e-05
20.697,1.50162882107933e-05,4.54702621595393e-05
20.6975,1.49969339174518e-05,4.5645107750359e-05
20.698,1.49773564362477e-05,4.5819614309852e-05
20.6985,1.4957558674165e-05,4.59937655612295e-05
20.699,1.49375435937182e-05,4.61675454854397e-05
20.6995,1.49173142122297e-05,4.63409383212641e-05
20.7,1.48968736010937e-05,4.65139285653628e-05
20.7005,1.48762248850259e-05,4.66865009722667e-05
20.701,1.48553712412999e-05,4.68586405543184e-05
20.7015,1.48343158989695e-05,4.70303325815616e-05
20.702,1.48130621380781e-05,4.72015625815789e-05
20.7025,1.47916132888555e-05,4.73723163392792e-05
20.703,1.47699727309012e-05,4.75425798966344e-05
20.7035,1.47481438923557e-05,4.77123395523665e-05
20.704,1.47261302490601e-05,4.7881581861585e-05
20.7045,1.47039353237033e-05,4.80502936353757e-05
20.705,1.46815626849586e-05,4.82184619403415e-05
20.7055,1.46590159466085e-05,4.83860740980957e-05
20.706,1.46362987666591e-05,4.85531176847084e-05
20.7065,1.46134148464437e-05,4.87195805301071e-05
20.707,1.45903679297161e-05,4.88854507174321e-05
20.7075,1.45671618017335e-05,4.90507165823465e-05
20.708,1.45438002883302e-05,4.92153667123022e-05
20.7085,1.45202872549802e-05,4.93793899457617e-05
20.709,1.44966266058522e-05,4.95427753713767e-05
20.7095,1.44728222828538e-05,4.97055123271232e-05
20.71,1.44488782646678e-05,4.98675903993946e-05
20.7105,1.44247985657795e-05,5.00289994220521e-05
20.711,1.44005872354963e-05,5.01897294754347e-05
20.7115,1.43762483569583e-05,5.03497708853281e-05
20.712,1.43517860461425e-05,5.05091142218934e-05
20.7125,1.43272044508584e-05,5.06677502985579e-05
20.713,1.43025077497376e-05,5.08256701708666e-05
20.7135,1.42777001512153e-05,5.09828651352969e-05
20.714,1.42527858925061e-05,5.11393267280371e-05
20.7145,1.42277692385724e-05,5.12950467237285e-05
20.715,1.42026544810865e-05,5.14500171341737e-05
20.7155,1.41774459373867e-05,5.16042302070103e-05
20.716,1.4152147949426e-05,5.17576784243525e-05
20.7165,1.41267648827159e-05,5.19103545013995e-05
20.717,1.41013011252624e-05,5.2062251385013e-05
20.7175,1.40757610864972e-05,5.22133622522639e-05
20.718,1.40501491962026e-05,5.23636805089483e-05
20.7185,1.40244699034301e-05,5.25131997880742e-05
20.719,1.39987276754145e-05,5.26619139483179e-05
20.7195,1.39729269964817e-05,5.28098170724523e-05
20.72,1.39470723669528e-05,5.29569034657445e-05
20.7205,1.39211683020423e-05,5.31031676543259e-05
20.721,1.3895219330753e-05,5.32486043835317e-05
20.7215,1.38692299947664e-05,5.33932086162118e-05
20.722,1.38432048473301e-05,5.35369755310113e-05
20.7225,1.38171484521409e-05,5.36799005206209e-05
20.723,1.37910653822262e-05,5.38219791899961e-05
20.7235,1.37649602188212e-05,5.39632073545442e-05
20.724,1.37388375502449e-05,5.41035810382788e-05
20.7245,1.37127019707729e-05,5.42430964719394e-05
20.725,1.36865580795086e-05,5.43817500910773e-05
20.7255,1.36604104792526e-05,5.45195385341042e-05
20.726,1.36342637753704e-05,5.46564586403051e-05
20.7265,1.36081225746592e-05,5.47925074478136e-05
20.727,1.35819914842135e-05,5.49276821915492e-05
20.7275,1.35558751102902e-05,5.50619803011167e-05
20.728,1.35297780571731e-05,5.51953993986683e-05
20.7285,1.35037049260378e-05,5.53279372967275e-05
20.729,1.34776603138164e-05,5.54595919959749e-05
20.7295,1.34516488120626e-05,5.55903616829991e-05
20.73,1.34256750058177e-05,5.57202447280094e-05
20.7305,1.33997434724775e-05,5.58492396825151e-05
20.731,1.33738587806595e-05,5.597734527697e-05
20.7315,1.33480254890728e-05,5.61045604183846e-05
20.732,1.33222481453875e-05,5.62308841879061e-05
20.7325,1.32965312851073e-05,5.63563158383689e-05
20.733,1.3270879430443e-05,5.64808547918149e-05
20.7335,1.32452970891881e-05,5.66045006369865e-05
20.734,1.3219788753597e-05,5.67272531267911e-05
20.7345,1.31943588992654e-05,5.68491121757405e-05
20.735,1.31690119840138e-05,5.69700778573637e-05
20.7355,1.31437524467737e-05,5.70901504015963e-05
20.736,1.31185847064771e-05,5.72093301921464e-05
20.7365,1.30935131609502e-05,5.73276177638388e-05
20.737,1.30685421858102e-05,5.74450137999392e-05
20.7375,1.30436761333674e-05,5.75615191294594e-05
20.738,1.3018919331532e-05,5.76771347244462e-05
20.7385,1.29942760827261e-05,5.77918616972542e-05
20.739,1.2969750662803e-05,5.79057012978054e-05
20.7395,1.29453473199722e-05,5.80186549108379e-05
20.74,1.29210702737325e-05,5.81307240531431e-05
20.7405,1.28969237138134e-05,5.82419103707956e-05
20.741,1.28729117991247e-05,5.83522156363768e-05
20.7415,1.28490386567158e-05,5.84616417461932e-05
20.742,1.28253083807447e-05,5.85701907174924e-05
20.7425,1.28017250314571e-05,5.86778646856773e-05
20.743,1.27782926341767e-05,5.87846659015215e-05
20.7435,1.2755015178307e-05,5.88905967283863e-05
20.744,1.27318966163447e-05,5.89956596394419e-05
20.7445,1.27089408629064e-05,5.90998572148936e-05
20.745,1.26861517937678e-05,5.92031921392143e-05
20.7455,1.26635332449172e-05,5.93056671983864e-05
20.746,1.26410890116227e-05,5.94072852771509e-05
20.7465,1.26188228475151e-05,5.95080493562692e-05
20.747,1.25967384636848e-05,5.9607962509795e-05
20.7475,1.25748395277955e-05,5.97070279023595e-05
20.748,1.25531296632131e-05,5.98052487864697e-05
20.7485,1.25316124481516e-05,5.99026284998215e-05
20.749,1.25102914148353e-05,5.99991704626281e-05
20.7495,1.24891700486786e-05,6.00948781749632e-05
20.75,1.24682517874826e-05,6.01897552141218e-05
20.7505,1.24475400206498e-05,6.02838052319969e-05
20.751,1.24270380884174e-05,6.03770319524728e-05
20.7515,1.24067492811078e-05,6.04694391688357e-05
20.752,1.23866768383983e-05,6.05610307412005e-05
20.7525,1.23668239486102e-05,6.06518105939541e-05
20.753,1.23471937480157e-05,6.07417827132136e-05
20.7535,1.23277893201652e-05,6.08309511443004e-05
20.754,1.23086136952337e-05,6.09193199892287e-05
20.7545,1.22896698493876e-05,6.10068934042081e-05
20.755,1.22709607041712e-05,6.10936755971599e-05
20.7555,1.22524891259138e-05,6.1179670825247e-05
20.756,1.22342579251576e-05,6.1264883392418e-05
20.7565,1.22162698561066e-05,6.13493176469649e-05
20.757,1.2198527616096e-05,6.14329779790946e-05
20.7575,1.21810338450838e-05,6.15158688185165e-05
20.758,1.21637911251624e-05,6.15979946320449e-05
20.7585,1.21468019800927e-05,6.16793599212192e-05
20.759,1.21300688748593e-05,6.17599692199415e-05
20.7595,1.21135942152466e-05,6.18398270921346e-05
20.76,1.20973803474378e-05,6.19189381294209e-05
20.7605,1.2081429557634e-05,6.19973069488233e-05
20.761,1.2065744071696e-05,6.20749381904917e-05
20.7615,1.20503260548068e-05,6.21518365154548e-05
20.762,1.20351776111563e-05,6.22280066033989e-05
20.7625,1.2020300783647e-05,6.23034531504763e-05
20.763,1.20056975536209e-05,6.23781808671432e-05
20.7635,1.19913698406079e-05,6.24521944760283e-05
20.764,1.19773195020946e-05,6.25254987098341e-05
20.7645,1.19635483333142e-05,6.25980983092693e-05
20.765,1.19500580670568e-05,6.26699980210157e-05
20.7655,1.19368503734994e-05,6.27412025957277e-05
20.766,1.19239268600561e-05,6.28117167860653e-05
20.7665,1.19112890712482e-05,6.28815453447617e-05
20.767,1.18989384885929e-05,6.29506930227232e-05
20.7675,1.18868765305113e-05,6.30191645671633e-05
20.768,1.18751045522549e-05,6.30869647197678e-05
20.7685,1.18636238458511e-05,6.31540982148934e-05
20.769,1.18524356400654e-05,6.32205697777947e-05
20.7695,1.18415411003832e-05,6.32863841228822e-05
20.77,1.18309413290074e-05,6.33515459520071e-05
20.7705,1.18206373648744e-05,6.34160599527724e-05
20.771,1.18106301836867e-05,6.34799307968697e-05
20.7715,1.18009206979623e-05,6.35431631384377e-05
20.772,1.17915097571002e-05,6.36057616124426e-05
20.7725,1.17823981474625e-05,6.36677308330785e-05
20.773,1.17735865924716e-05,6.37290753921853e-05
20.7735,1.17650757527233e-05,6.37897998576833e-05
20.774,1.17568662261145e-05,6.38499087720237e-05
20.7745,1.17489585479857e-05,6.39094066506526e-05
20.775,1.17413531912779e-05,6.39682979804891e-05
20.7755,1.17340505667025e-05,6.40265872184152e-05
20.776,1.1727051022926e-05,6.40842787897787e-05
20.7765,1.17203548467669e-05,6.41413770869069e-05
20.777,1.17139622634056e-05,6.41978864676325e-05
20.7775,1.1707873436607e-05,6.42538112538309e-05
20.778,1.17020884689547e-05,6.43091557299692e-05
20.7785,1.16966074020976e-05,6.43639241416664e-05
20.779,1.16914302170068e-05,6.44181206942663e-05
20.7795,1.16865568342455e-05,6.4471749551422e-05
20.78,1.16819871142473e-05,6.45248148336937e-05
20.7805,1.16777208576076e-05,6.45773206171585e-05
20.781,1.16737578053832e-05,6.46292709320337e-05
20.7815,1.16700976394033e-05,6.46806697613128e-05
20.782,1.16667399825897e-05,6.4731521039414e-05
20.7825,1.16636843992863e-05,6.47818286508417e-05
20.783,1.16609303955982e-05,6.48315964288588e-05
20.7835,1.16584774197391e-05,6.48808281541715e-05
20.784,1.16563248623877e-05,6.49295275536224e-05
20.7845,1.16544720570516e-05,6.49776982988943e-05
20.785,1.16529182804394e-05,6.5025344005221e-05
20.7855,1.16516627528397e-05,6.50724682301054e-05
20.786,1.16507046385078e-05,6.51190744720435e-05
20.7865,1.16500430460587e-05,6.51651661692526e-05
20.787,1.16496770288668e-05,6.52107466984033e-05
20.7875,1.16496055854716e-05,6.52558193733543e-05
20.788,1.16498276599906e-05,6.53003874438879e-05
20.7885,1.16503421425365e-05,6.53444540944472e-05
20.789,1.16511478696419e-05,6.53880224428726e-05
20.7895,1.16522436246883e-05,6.54310955391381e-05
20.79,1.16536281383411e-05,6.54736763640864e-05
20.7905,1.16553000889898e-05,6.55157678281627e-05
20.791,1.16572581031933e-05,6.55573727701477e-05
20.7915,1.16595007561291e-05,6.55984939558882e-05
20.792,1.16620265720481e-05,6.56391340770285e-05
20.7925,1.16648340247328e-05,6.56792957497394e-05
20.793,1.16679215379599e-05,6.57189815134486e-05
20.7935,1.16712874859661e-05,6.57581938295718e-05
20.794,1.16749301939183e-05,6.57969350802457e-05
20.7945,1.1678847938386e-05,6.58352075670648e-05
20.795,1.16830389478176e-05,6.58730135098217e-05
20.7955,1.16875014030189e-05,6.59103550452544e-05
20.796,1.16922334376343e-05,6.59472342258009e-05
20.7965,1.16972331386298e-05,6.59836530183615e-05
20.797,1.17024985467783e-05,6.60196133030732e-05
20.7975,1.17080276571459e-05,6.60551168720946e-05
20.798,1.17138184195796e-05,6.60901654284032e-05
20.7985,1.17198687391956e-05,6.61247605846085e-05
20.799,1.17261764768678e-05,6.61589038617773e-05
20.7995,1.17327394497169e-05,6.61925966882768e-05
20.8,1.17395554315981e-05,6.62258403986327e-05
20.8005,1.17466221535882e-05,6.62586362324056e-05
20.801,1.17539373044719e-05,6.62909853330843e-05
20.8015,1.1761498531226e-05,6.63228887469994e-05
20.802,1.17693034395015e-05,6.63543474222567e-05
20.8025,1.17773495941052e-05,6.6385362207692e-05
20.803,1.17856345194768e-05,6.6415933851849e-05
20.8035,1.17941557001663e-05,6.64460630019814e-05
20.804,1.18029105813075e-05,6.64757502030818e-05
20.8045,1.18118965690902e-05,6.65049958969388e-05
20.805,1.18211110312298e-05,6.65338004212244e-05
20.8055,1.18305512974356e-05,6.65621640086143e-05
20.806,1.1840214659876e-05,6.65900867859434e-05
20.8065,1.18500983736425e-05,6.66175687733984e-05
20.807,1.18601996572113e-05,6.66446098837505e-05
20.8075,1.18705156929032e-05,6.66712099216308e-05
20.808,1.18810436273402e-05,6.66973685828497e-05
20.8085,1.18917805719019e-05,6.67230854537638e-05
20.809,1.19027236031779e-05,6.67483600106928e-05
20.8095,1.19138697634195e-05,6.67731916193878e-05
20.81,1.19252160609886e-05,6.6797579534554e-05
20.8105,1.1936759470805e-05,6.68215228994301e-05
20.811,1.19484969347919e-05,6.68450207454267e-05
20.8115,1.19604253623198e-05,6.68680719918253e-05
20.812,1.19725416306483e-05,6.68906754455403e-05
20.8125,1.1984842585368e-05,6.69128298009454e-05
20.813,1.19973250408392e-05,6.69345336397666e-05
20.8135,1.20099857806316e-05,6.69557854310421e-05
20.814,1.20228215579619e-05,6.6976583531152e-05
20.8145,1.2035829096131e-05,6.69969261839166e-05
20.815,1.20490050889612e-05,6.70168115207661e-05
20.8155,1.20623462012334e-05,6.70362375609807e-05
20.816,1.20758490691233e-05,6.70552022120034e-05
20.8165,1.20895103006399e-05,6.70737032698238e-05
20.817,1.21033264760633e-05,6.70917384194353e-05
20.8175,1.2117294148385e-05,6.71093052353634e-05
20.818,1.21314098437485e-05,6.71264011822675e-05
20.8185,1.21456700618935e-05,6.71430236156138e-05
20.819,1.21600712766012e-05,6.71591697824208e-05
20.8195,1.2174609936143e-05,6.71748368220765e-05
20.82,1.21892824637321e-05,6.71900217672265e-05
20.8205,1.2204085257979e-05,6.7204721544734e-05
20.821,1.22190146933505e-05,6.721893297671e-05
20.8215,1.22340671206337e-05,6.72326527816158e-05
20.822,1.2249238867405e-05,6.72458775754348e-05
20.8225,1.22645262385044e-05,6.72586038729174e-05
20.823,1.22799255165159e-05,6.72708280888955e-05
20.8235,1.22954329622545e-05,6.72825465396695e-05
20.824,1.23110448152608e-05,6.72937554444675e-05
20.8245,1.2326757294302e-05,6.73044509269766e-05
20.825,1.23425665978815e-05,6.73146290169474e-05
20.8255,1.23584689047566e-05,6.73242856518715e-05
20.826,1.23744603744651e-05,6.73334166787331e-05
20.8265,1.23905371478598e-05,6.73420178558346e-05
20.827,1.24066953476531e-05,6.7350084854696e-05
20.8275,1.24229310789707e-05,6.73576132620285e-05
20.828,1.24392404299149e-05,6.73645985817825e-05
20.8285,1.24556194721379e-05,6.73710362372685e-05
20.829,1.24720642614245e-05,6.73769215733515e-05
20.8295,1.24885708382862e-05,6.73822498587184e-05
20.83,1.25051352285642e-05,6.73870162882165e-05
20.8305,1.25217534440438e-05,6.73912159852651e-05
20.831,1.25384214830781e-05,6.73948440043365e-05
20.8315,1.2555135331223e-05,6.7397895333509e-05
20.832,1.25718909618814e-05,6.74003648970888e-05
20.8325,1.25886843369584e-05,6.74022475583027e-05
20.833,1.26055114075255e-05,6.74035381220584e-05
20.8335,1.26223681144952e-05,6.74042313377743e-05
20.834,1.26392503893048e-05,6.74043219022755e-05
20.8345,1.26561541546097e-05,6.74038044627568e-05
20.835,1.26730753249852e-05,6.74026736198106e-05
20.8355,1.26900098076379e-05,6.74009239305181e-05
20.836,1.27069535031251e-05,6.73985499116017e-05
20.8365,1.27239023060828e-05,6.73955460426385e-05
20.837,1.27408521059616e-05,6.73919067693297e-05
20.8375,1.27577987877716e-05,6.73876265068259e-05
20.838,1.27747382328339e-05,6.73826996431046e-05
20.8385,1.27916663195405e-05,6.73771205423977e-05
20.839,1.28085789241223e-05,6.73708835486652e-05
20.8395,1.28254719214232e-05,6.73639829891135e-05
20.84,1.28423411856825e-05,6.73564131777549e-05
20.8405,1.28591825913241e-05,6.73481684190042e-05
20.841,1.28759920137519e-05,6.73392430113123e-05
20.8415,1.28927653301521e-05,6.73296312508316e-05
20.842,1.29094984203018e-05,6.73193274351112e-05
20.8425,1.29261871673838e-05,6.73083258668201e-05
20.843,1.29428274588069e-05,6.72966208574948e-05
20.8435,1.29594151870322e-05,6.72842067313096e-05
20.844,1.29759462504049e-05,6.72710778288656e-05
20.8445,1.29924165539921e-05,6.7257228510997e-05
20.845,1.30088220104252e-05,6.72426531625914e-05
20.8455,1.30251585407486e-05,6.72273461964203e-05
20.846,1.30414220752732e-05,6.72113020569775e-05
20.8465,1.30576085544362e-05,6.71945152243218e-05
20.847,1.30737139296652e-05,6.71769802179195e-05
20.8475,1.30897341642491e-05,6.71586916004845e-05
20.848,1.31056652342133e-05,6.71396439818106e-05
20.8485,1.31215031292011e-05,6.71198320225944e-05
20.849,1.31372438533598e-05,6.70992504382428e-05
20.8495,1.31528834262326e-05,6.70778940026636e-05
20.85,1.31684178836544e-05,6.70557575520339e-05
20.8505,1.31838432786532e-05,6.70328359885448e-05
20.851,1.31991556823563e-05,6.70091242841175e-05
20.8515,1.32143511848996e-05,6.69846174840895e-05
20.852,1.32294258963423e-05,6.6959310710867e-05
20.8525,1.32443759475846e-05,6.69331991675417e-05
20.853,1.32591974912895e-05,6.69062781414703e-05
20.8535,1.32738867028074e-05,6.68785430078135e-05
20.854,1.3288439781104e-05,6.68499892330345e-05
20.8545,1.33028529496909e-05,6.68206123783545e-05
20.855,1.33171224575582e-05,6.67904081031636e-05
20.8555,1.33312445801097e-05,6.67593721683878e-05
20.856,1.33452156201e-05,6.67275004398078e-05
20.8565,1.33590319085726e-05,6.66947888913318e-05
20.857,1.33726898057996e-05,6.66612336082177e-05
20.8575,1.33861857022227e-05,6.66268307902454e-05
20.858,1.3399516019394e-05,6.6591576754836e-05
20.8585,1.34126772109176e-05,6.65554679401171e-05
20.859,1.34256657633911e-05,6.6518500907932e-05
20.8595,1.34384781973458e-05,6.64806723467909e-05
20.86,1.34511110681872e-05,6.64419790747634e-05
20.8605,1.34635609671333e-05,6.64024180423094e-05
20.861,1.34758245221519e-05,6.63619863350492e-05
20.8615,1.34878983988957e-05,6.63206811764702e-05
20.862,1.34997793016347e-05,6.62784999305699e-05
20.8625,1.35114639741866e-05,6.62354401044354e-05
20.863,1.35229492008427e-05,6.6191499350759e-05
20.8635,1.35342318072915e-05,6.6146675470289e-05
20.864,1.35453086615364e-05,6.6100966414218e-05
20.8645,1.35561766748097e-05,6.60543702865069e-05
20.865,1.35668328024809e-05,6.60068853461476e-05
20.8655,1.35772740449583e-05,6.59585100093633e-05
20.866,1.35874974485844e-05,6.59092428517477e-05
20.8665,1.35975001065235e-05,6.58590826103446e-05
20.867,1.36072791596414e-05,6.5808028185667e-05
20.8675,1.36168317973756e-05,6.57560786436576e-05
20.868,1.36261552585968e-05,6.57032332175904e-05
20.8685,1.36352468324594e-05,6.56494913099141e-05
20.869,1.36441038592417e-05,6.55948524940373e-05
20.8695,1.36527237311749e-05,6.55393165160542e-05
20.87,1.36611038932605e-05,6.54828832964129e-05
20.8705,1.36692418440751e-05,6.54255529315226e-05
20.871,1.36771351365638e-05,6.53673256953021e-05
20.8715,1.36847813788194e-05,6.53082020406661e-05
20.872,1.36921782348499e-05,6.52481826009502e-05
20.8725,1.36993234253314e-05,6.51872681912724e-05
20.873,1.37062147283476e-05,6.51254598098299e-05
20.8735,1.37128499801146e-05,6.5062758639131e-05
20.874,1.37192270756917e-05,6.4999166047159e-05
20.8745,1.37253439696765e-05,6.49346835884673e-05
20.875,1.37311986768845e-05,6.48693130052055e-05
20.8755,1.37367892730142e-05,6.48030562280722e-05
20.876,1.37421138952948e-05,6.47359153771965e-05
20.8765,1.3747170743119e-05,6.46678927629438e-05
20.877,1.37519580786593e-05,6.45989908866475e-05
20.8775,1.3756474227468e-05,6.45292124412627e-05
20.878,1.37607175790612e-05,6.44585603119434e-05
20.8785,1.37646865874864e-05,6.43870375765407e-05
20.879,1.37683797718741e-05,6.43146475060222e-05
20.8795,1.37717957169731e-05,6.42413935648118e-05
20.88,1.37749330736697e-05,6.41672794110485e-05
20.8805,1.37777905594907e-05,6.40923088967662e-05
20.881,1.37803669590907e-05,6.40164860679925e-05
20.8815,1.37826611247227e-05,6.39398151647677e-05
20.882,1.37846719766932e-05,6.38623006210833e-05
20.8825,1.37863985038e-05,6.37839470647421e-05
20.883,1.37878397637549e-05,6.37047593171381e-05
20.8835,1.37889948835886e-05,6.36247423929581e-05
20.884,1.37898630600396e-05,6.35439014998043e-05
20.8845,1.37904435599264e-05,6.34622420377388e-05
20.885,1.37907357205016e-05,6.33797695987491e-05
20.8855,1.37907389497906e-05,6.3296489966135e-05
20.886,1.37904527269111e-05,6.32124091138172e-05
20.8865,1.37898766023772e-05,6.31275332055661e-05
20.887,1.37890101983851e-05,6.30418685941532e-05
20.8875,1.37878532090816e-05,6.29554218204231e-05
20.888,1.37864054008156e-05,6.28681996122873e-05
20.8885,1.37846666123728e-05,6.27802088836408e-05
20.889,1.37826367551921e-05,6.26914567332008e-05
20.8895,1.37803158135667e-05,6.26019504432689e-05
20.89,1.37777038448263e-05,6.25116974784174e-05
20.8905,1.3774800979504e-05,6.24207054841004e-05
20.891,1.37716074214851e-05,6.23289822851902e-05
20.8915,1.37681234481393e-05,6.22365358844402e-05
20.892,1.37643494104359e-05,6.21433744608749e-05
20.8925,1.37602857330409e-05,6.20495063681072e-05
20.893,1.37559329143982e-05,6.19549401325846e-05
20.8935,1.37512915267921e-05,6.1859684451764e-05
20.894,1.37463622163928e-05,6.1763748192217e-05
20.8945,1.37411457032842e-05,6.16671403876642e-05
20.895,1.37356427814741e-05,6.15698702369411e-05
20.8955,1.37298543188861e-05,6.14719471018947e-05
20.896,1.3723781257334e-05,6.13733805052115e-05
20.8965,1.37174246124778e-05,6.12741801281774e-05
20.897,1.37107854737615e-05,6.11743558083702e-05
20.8975,1.37038650043325e-05,6.10739175372835e-05
20.898,1.36966644409423e-05,6.09728754578853e-05
20.8985,1.36891850938282e-05,6.08712398621084e-05
20.899,1.36814283465765e-05,6.07690211882757e-05
20.8995,1.3673395655965e-05,6.06662300184594e-05
20.9,1.36650885517874e-05,6.0562877075775e-05
20.9005,1.36565086366558e-05,6.04589732216103e-05
20.901,1.36476575857846e-05,6.035452945279e-05
20.9015,1.36385371467519e-05,6.02495568986754e-05
20.902,1.36291491392418e-05,6.01440668181998e-05
20.9025,1.36194954547636e-05,6.00380705968393e-05
20.903,1.3609578056351e-05,5.99315797435181e-05
20.9035,1.35993989782389e-05,5.98246058874486e-05
20.904,1.35889603255184e-05,5.97171607749048e-05
20.9045,1.35782642737704e-05,5.96092562659294e-05
20.905,1.35673130686763e-05,5.95009043309722e-05
20.9055,1.35561090256069e-05,5.93921170474609e-05
20.906,1.35446545291894e-05,5.92829065963018e-05
20.9065,1.35329520328504e-05,5.91732852583119e-05
20.907,1.35210040583378e-05,5.90632654105801e-05
20.9075,1.35088131952183e-05,5.8952859522759e-05
20.908,1.34963821003528e-05,5.88420801532875e-05
20.9085,1.34837134973485e-05,5.87309399455429e-05
20.909,1.34708101759879e-05,5.86194516239257e-05
20.9095,1.34576749916354e-05,5.85076279898767e-05
20.91,1.34443108646211e-05,5.83954819178284e-05
20.9105,1.34307207796023e-05,5.82830263510915e-05
20.911,1.34169077849035e-05,5.81702742976797e-05
20.9115,1.34028749918351e-05,5.80572388260739e-05
20.912,1.33886255739902e-05,5.79439330609292e-05
20.9125,1.33741627665215e-05,5.78303701787265e-05
20.913,1.33594898653978e-05,5.77165634033721e-05
20.9135,1.33446102266397e-05,5.76025260017477e-05
20.914,1.33295272655363e-05,5.74882712792143e-05
20.9145,1.33142444558424e-05,5.73738125750721e-05
20.915,1.3298765328956e-05,5.7259163257979e-05
20.9155,1.32830934730773e-05,5.71443367213301e-05
20.916,1.32672325323488e-05,5.70293463786016e-05
20.9165,1.32511862059769e-05,5.69142056586595e-05
20.917,1.32349582473355e-05,5.67989280010372e-05
20.9175,1.32185524630521e-05,5.66835268511823e-05
20.918,1.32019727120754e-05,5.65680156556772e-05
20.9185,1.31852229047281e-05,5.64524078574326e-05
20.919,1.31683070017422e-05,5.63367168908589e-05
20.9195,1.31512290132796e-05,5.62209561770159e-05
20.92,1.31339929979382e-05,5.61051391187438e-05
20.9205,1.31166030617444e-05,5.59892790957777e-05
20.921,1.30990633571329e-05,5.58733894598481e-05
20.9215,1.30813780819143e-05,5.575748352977e-05
20.922,1.30635514782319e-05,5.56415745865239e-05
20.9225,1.30455878315081e-05,5.55256758683302e-05
20.923,1.30274914693815e-05,5.54098005657225e-05
20.9235,1.30092667606353e-05,5.52939618166202e-05
20.924,1.29909181141172e-05,5.51781727014062e-05
20.9245,1.29724499776531e-05,5.50624462380112e-05
20.925,1.29538668369533e-05,5.49467953770099e-05
20.9255,1.29351732145132e-05,5.48312329967309e-05
20.926,1.29163736685092e-05,5.47157718983863e-05
20.9265,1.28974727916893e-05,5.46004248012222e-05
20.927,1.28784752102604e-05,5.44852043376957e-05
20.9275,1.28593855827718e-05,5.4370123048681e-05
20.928,1.28402085989963e-05,5.42551933787087e-05
20.9285,1.28209489788087e-05,5.41404276712416e-05
20.929,1.28016114710625e-05,5.4025838163991e-05
20.9295,1.2782200852465e-05,5.39114369842755e-05
20.93,1.27627219264521e-05,5.37972361444271e-05
20.9305,1.27431795220616e-05,5.36832475372463e-05
20.931,1.27235784928072e-05,5.35694829315098e-05
20.9315,1.27039237155514e-05,5.34559539675325e-05
20.932,1.26842200893797e-05,5.33426721527881e-05
20.9325,1.26644725344751e-05,5.3229648857588e-05
20.933,1.2644685990993e-05,5.31168953108231e-05
20.9335,1.26248654179377e-05,5.30044225957683e-05
20.934,1.26050157920396e-05,5.28922416459536e-05
20.9345,1.25851421066345e-05,5.27803632411012e-05
20.935,1.25652493705437e-05,5.26687980031321e-05
20.9355,1.25453426069567e-05,5.25575563922434e-05
20.936,1.25254268523151e-05,5.24466487030559e-05
20.9365,1.25055071551996e-05,5.23360850608368e-05
20.937,1.24855885752184e-05,5.22258754177959e-05
20.9375,1.24656761818994e-05,5.21160295494583e-05
20.938,1.24457750535841e-05,5.20065570511146e-05
20.9385,1.24258902763256e-05,5.1897467334351e-05
20.939,1.24060269427899e-05,5.17887696236589e-05
20.9395,1.23861901511605e-05,5.16804729531279e-05
20.94,1.23663850040469e-05,5.15725861632235e-05
20.9405,1.23466166073976e-05,5.14651178976506e-05
20.941,1.23268900694173e-05,5.13580766003066e-05
20.9415,1.23072104994875e-05,5.12514705123247e-05
20.942,1.22875830070934e-05,5.11453076692123e-05
20.9425,1.22680127007537e-05,5.10395958980846e-05
20.943,1.22485046869568e-05,5.09343428149975e-05
20.9435,1.22290640691003e-05,5.08295558223819e-05
20.944,1.22096959464365e-05,5.07252421065818e-05
20.9445,1.21904054130222e-05,5.06214086354988e-05
20.945,1.21711975566732e-05,5.05180621563445e-05
20.9455,1.21520774579235e-05,5.04152091935041e-05
20.946,1.21330501889895e-05,5.03128560465107e-05
20.9465,1.21141208127377e-05,5.02110087881349e-05
20.947,1.20952943816575e-05,5.01096732625893e-05
20.9475,1.20765759368373e-05,5.00088550838494e-05
20.948,1.20579705069443e-05,4.99085596340937e-05
20.9485,1.20394831072078e-05,4.9808792062263e-05
20.949,1.20211187384054e-05,4.97095572827417e-05
20.9495,1.20028823858513e-05,4.96108599741608e-05
20.95,1.19847790183878e-05,4.95127045783258e-05
20.9505,1.19668135873774e-05,4.94150952992695e-05
20.951,1.19489910256975e-05,4.93180361024323e-05
20.9515,1.19313162467358e-05,4.92215307139698e-05
20.952,1.19137941433869e-05,4.91255826201904e-05
20.9525,1.18964295870496e-05,4.90301950671232e-05
20.953,1.18792274266254e-05,4.89353710602171e-05
20.9535,1.18621924875169e-05,4.88411133641729e-05
20.954,1.18453295706283e-05,4.87474245029079e-05
20.9545,1.18286434513652e-05,4.86543067596553e-05
20.955,1.18121388786362e-05,4.85617621771968e-05
20.9555,1.17958205738551e-05,4.84697925582318e-05
20.956,1.1779693229944e-05,4.83783994658811e-05
20.9565,1.17637615103376e-05,4.82875842243267e-05
20.957,1.17480300479879e-05,4.81973479195882e-05
20.9575,1.17325034443706e-05,4.81076914004347e-05
20.958,1.17171862684917e-05,4.80186152794341e-05
20.9585,1.1702083055896e-05,4.79301199341374e-05
20.959,1.16871983076761e-05,4.78422055084011e-05
20.9595,1.16725364894828e-05,4.77548719138437e-05
20.96,1.16581020305377e-05,4.76681188314394e-05
20.9605,1.16438993226468e-05,4.75819457132467e-05
20.961,1.16299327192163e-05,4.74963517842709e-05
20.9615,1.16162065342714e-05,4.74113360444619e-05
20.962,1.16027250414766e-05,4.73268972708436e-05
20.9625,1.15894924731604e-05,4.72430340197769e-05
20.963,1.15765130193416e-05,4.71597446293517e-05
20.9635,1.15637908267608e-05,4.70770272219097e-05
20.964,1.15513299979143e-05,4.69948797066949e-05
20.9645,1.1539134590093e-05,4.69132997826299e-05
20.965,1.15272086144251e-05,4.68322849412179e-05
20.9655,1.15155560349233e-05,4.6751832469567e-05
20.966,1.15041807675365e-05,4.66719394535363e-05
20.9665,1.14930866792066e-05,4.65926027809996e-05
20.967,1.14822775869298e-05,4.65138191452279e-05
20.9675,1.14717572568232e-05,4.64355850483852e-05
20.968,1.14615294031969e-05,4.63578968051371e-05
20.9685,1.14515976876315e-05,4.628075054637e-05
20.969,1.14419657180609e-05,4.62041422230166e-05
20.9695,1.14326370478622e-05,4.61280676099868e-05
20.97,1.1423615174951e-05,4.60525223102006e-05
20.9705,1.14149035408838e-05,4.59775017587197e-05
20.971,1.1406505529967e-05,4.5903001226975e-05
20.9715,1.13984244683737e-05,4.58290158270875e-05
20.972,1.13906636232667e-05,4.57555405162783e-05
20.9725,1.13832262019303e-05,4.56825701013658e-05
20.973,1.13761153509092e-05,4.56100992433447e-05
20.9735,1.13693341551556e-05,4.5538122462045e-05
20.974,1.13628856371844e-05,4.54666341408668e-05
20.9745,1.13567727562367e-05,4.53956285315858e-05
20.975,1.13509984074521e-05,4.53250997592276e-05
20.9755,1.13455654210495e-05,4.52550418270045e-05
20.976,1.13404765615172e-05,4.51854486213131e-05
20.9765,1.13357345268123e-05,4.51163139167858e-05
20.977,1.13313419475696e-05,4.50476313813949e-05
20.9775,1.1327301386321e-05,4.49793945816023e-05
20.978,1.13236153367244e-05,4.49115969875534e-05
20.9785,1.13202862228039e-05,4.48442319783086e-05
20.979,1.13173163982009e-05,4.47772928471106e-05
20.9795,1.13147081454362e-05,4.47107728066821e-05
20.98,1.13124636751843e-05,4.46446649945515e-05
20.9805,1.13105851255592e-05,4.45789624784019e-05
20.981,1.13090745614131e-05,4.45136582614405e-05
20.9815,1.13079339736475e-05,4.44487452877846e-05
20.982,1.13071652785375e-05,4.43842164478614e-05
20.9825,1.13067703170697e-05,4.43200645838163e-05
20.983,1.13067508542926e-05,4.42562824949288e-05
20.9835,1.13071085786823e-05,4.41928629430298e-05
20.984,1.13078451015208e-05,4.41297986579179e-05
20.9845,1.13089619562896e-05,4.40670823427698e-05
20.985,1.1310460598077e-05,4.40047066795426e-05
20.9855,1.13123424030005e-05,4.39426643343614e-05
20.986,1.13146086676443e-05,4.38809479628908e-05
20.9865,1.13172606085123e-05,4.3819550215685e-05
20.987,1.13202993614968e-05,4.37584637435139e-05
20.9875,1.13237259813641e-05,4.36976812026605e-05
20.988,1.13275414412565e-05,4.36371952601882e-05
20.9885,1.13317466322126e-05,4.35769985991723e-05
20.989,1.13363423627051e-05,4.35170839238959e-05
20.9895,1.13413293581981e-05,4.34574439650035e-05
20.99,1.13467082607231e-05,4.33980714846137e-05
20.9905,1.13524796284758e-05,4.33389592813842e-05
20.991,1.13586439354328e-05,4.32801001955293e-05
20.9915,1.13652015709902e-05,4.32214871137868e-05
20.992,1.1372152839623e-05,4.31631129743302e-05
20.9925,1.13794979605685e-05,4.31049707716261e-05
20.993,1.13872370675305e-05,4.30470535612321e-05
20.9935,1.13953702084099e-05,4.29893544645344e-05
20.994,1.14038973450568e-05,4.29318666734214e-05
20.9945,1.14128183530504e-05,4.28745834548915e-05
20.995,1.1422133021502e-05,4.28174981555924e-05
20.9955,1.14318410528865e-05,4.27606042062884e-05
20.996,1.14419420628988e-05,4.27038951262552e-05
20.9965,1.14524355803392e-05,4.26473645275961e-05
20.997,1.1463321047025e-05,4.25910061194801e-05
20.9975,1.14745978177318e-05,4.25348137122967e-05
20.998,1.14862651601628e-05,4.24787812217243e-05
20.9985,1.14983222549469e-05,4.24229026727106e-05
20.999,1.15107681956666e-05,4.23671722033592e-05
20.9995,1.15236019889159e-05,4.23115840687212e-05
21,1.15368225543869e-05,4.22561326444853e-05
21.0005,1.15504287249885e-05,4.22008124305666e-05
21.001,1.15644192469938e-05,4.21456180545863e-05
21.0015,1.15787927802186e-05,4.20905442752417e-05
21.002,1.15935478982314e-05,4.20355859855616e-05
21.0025,1.16086830885927e-05,4.19807382160435e-05
21.003,1.1624196753127e-05,4.19259961376698e-05
21.0035,1.16400872082238e-05,4.18713550647999e-05
21.004,1.16563526851718e-05,4.18168104579343e-05
21.0045,1.16729913305226e-05,4.17623579263495e-05
21.005,1.16900012064863e-05,4.17079932305996e-05
21.0055,1.17073802913584e-05,4.1653712284883e-05
21.006,1.17251264799778e-05,4.15995111592733e-05
21.0065,1.17432375842157e-05,4.15453860818102e-05
21.007,1.17617113334966e-05,4.14913334404513e-05
21.0075,1.17805453753496e-05,4.14373497848824e-05
21.008,1.1799737275992e-05,4.1383431828185e-05
21.0085,1.18192845209439e-05,4.13295764483613e-05
21.009,1.1839184515674e-05,4.1275780689715e-05
21.0095,1.18594345862766e-05,4.12220417640878e-05
21.01,1.18800319801808e-05,4.1168357051951e-05
21.0105,1.19009738668894e-05,4.11147241033521e-05
21.011,1.19222573387501e-05,4.10611406387155e-05
21.0115,1.19438794117567e-05,4.10076045494969e-05
21.012,1.19658370263816e-05,4.09541138986906e-05
21.0125,1.19881270484383e-05,4.09006669211902e-05
21.013,1.20107462699739e-05,4.08472620240008e-05
21.0135,1.20336914101922e-05,4.07938977863044e-05
21.014,1.20569591164055e-05,4.07405729593772e-05
21.0145,1.20805459650161e-05,4.06872864663602e-05
21.015,1.21044484625261e-05,4.06340374018835e-05
21.0155,1.2128663046576e-05,4.05808250315454e-05
21.016,1.21531860870109e-05,4.05276487912483e-05
21.0165,1.21780138869737e-05,4.04745082863918e-05
21.017,1.22031426840259e-05,4.04214032909281e-05
21.0175,1.22285686512939e-05,4.03683337462786e-05
21.018,1.2254287898641e-05,4.03152997601174e-05
21.0185,1.22802964738649e-05,4.02623016050241e-05
21.019,1.23065903639193e-05,4.0209339717008e-05
21.0195,1.2333165496159e-05,4.01564146939089e-05
21.02,1.23600177396084e-05,4.01035272936767e-05
21.0205,1.2387142906252e-05,4.0050678432534e-05
21.021,1.24145367523468e-05,3.99978691830249e-05
21.0215,1.24421949797552e-05,3.99451007719531e-05
21.022,1.24701132372981e-05,3.98923745782133e-05
21.0225,1.24982871221271e-05,3.9839692130518e-05
21.023,1.25267121811154e-05,3.97870551050242e-05
21.0235,1.2555383912266e-05,3.97344653228625e-05
21.024,1.25842977661373e-05,3.96819247475711e-05
21.0245,1.26134491472837e-05,3.96294354824402e-05
21.025,1.26428334157124e-05,3.95769997677679e-05
21.0255,1.26724458883528e-05,3.95246199780328e-05
21.026,1.27022818405404e-05,3.94722986189859e-05
21.0265,1.27323365075121e-05,3.9420038324667e-05
21.027,1.27626050859119e-05,3.93678418543488e-05
21.0275,1.27930827353077e-05,3.9315712089413e-05
21.028,1.28237645797161e-05,3.92636520301635e-05
21.0285,1.28546457091348e-05,3.92116647925805e-05
21.029,1.28857211810823e-05,3.91597536050206e-05
21.0295,1.29169860221417e-05,3.91079218048667e-05
21.03,1.29484352295101e-05,3.90561728351343e-05
21.0305,1.29800637725492e-05,3.90045102410353e-05
21.031,1.30118665943386e-05,3.89529376665082e-05
21.0315,1.30438386132288e-05,3.8901458850715e-05
21.032,1.30759747243934e-05,3.88500776245124e-05
21.0325,1.31082698013787e-05,3.87987979068991e-05
21.033,1.31407186976499e-05,3.8747623701445e-05
21.0335,1.31733162481324e-05,3.86965590927051e-05
21.034,1.32060572707478e-05,3.86456082426228e-05
21.0345,1.32389365679422e-05,3.85947753869253e-05
21.035,1.32719489282077e-05,3.85440648315169e-05
21.0355,1.33050891275947e-05,3.84934809488702e-05
21.036,1.33383519312154e-05,3.84430281744229e-05
21.0365,1.33717320947362e-05,3.83927110029804e-05
21.037,1.34052243658606e-05,3.83425339851283e-05
21.0375,1.34388234857993e-05,3.82925017236596e-05
21.038,1.34725241907286e-05,3.82426188700177e-05
21.0385,1.35063212132356e-05,3.81928901207608e-05
21.039,1.35402092837492e-05,3.81433202140488e-05
21.0395,1.35741831319566e-05,3.80939139261582e-05
21.04,1.36082374882046e-05,3.80446760680264e-05
21.0405,1.36423670848836e-05,3.79956114818307e-05
21.041,1.3676566657796e-05,3.79467250376028e-05
21.0415,1.37108309475053e-05,3.78980216298836e-05
21.042,1.37451547006682e-05,3.78495061744206e-05
21.0425,1.37795326713474e-05,3.78011836049102e-05
21.043,1.38139596223044e-05,3.77530588697892e-05
21.0435,1.38484303262741e-05,3.77051369290756e-05
21.044,1.38829395672173e-05,3.76574227512635e-05
21.0445,1.39174821415547e-05,3.7609921310273e-05
21.045,1.39520528593791e-05,3.75626375824581e-05
21.0455,1.39866465456469e-05,3.75155765436738e-05
21.046,1.40212580413491e-05,3.74687431664054e-05
21.0465,1.40558822046604e-05,3.74221424169609e-05
21.047,1.40905139120679e-05,3.73757792527293e-05
21.0475,1.41251480594775e-05,3.73296586195047e-05
21.048,1.41597795632998e-05,3.72837854488801e-05
21.0485,1.41944033615138e-05,3.72381646557106e-05
21.049,1.42290144147089e-05,3.71928011356484e-05
21.0495,1.42636077071058e-05,3.71476997627508e-05
21.05,1.4298178247554e-05,3.71028653871634e-05
21.0505,1.43327210705088e-05,3.70583028328795e-05
21.051,1.43672312369846e-05,3.70140168955762e-05
21.0515,1.4401703835487e-05,3.69700123405306e-05
21.052,1.4436133982922e-05,3.69262939006155e-05
21.0525,1.44705168254828e-05,3.68828662743767e-05
21.053,1.45048475395151e-05,3.68397341241929e-05
21.0535,1.45391213323598e-05,3.67969020745179e-05
21.054,1.45733334431738e-05,3.67543747102087e-05
21.0545,1.46074791437293e-05,3.67121565749364e-05
21.055,1.46415537391911e-05,3.66702521696846e-05
21.0555,1.46755525688727e-05,3.6628665951333e-05
21.056,1.47094710069707e-05,3.65874023313283e-05
21.0565,1.47433044632778e-05,3.65464656744424e-05
21.057,1.47770483838748e-05,3.65058602976191e-05
21.0575,1.48106982518009e-05,3.64655904689083e-05
21.058,1.48442495877033e-05,3.64256604064898e-05
21.0585,1.48776979504649e-05,3.63860742777859e-05
21.059,1.49110389378122e-05,3.63468361986629e-05
21.0595,1.49442681869015e-05,3.63079502327227e-05
21.06,1.4977381374885e-05,3.62694203906836e-05
21.0605,1.50103742194557e-05,3.623125062985e-05
21.061,1.50432424793733e-05,3.61934448536723e-05
21.0615,1.50759819549686e-05,3.61560069113949e-05
21.062,1.51085884886288e-05,3.6118940597793e-05
21.0625,1.51410579652623e-05,3.60822496529977e-05
21.063,1.5173386312744e-05,3.60459377624083e-05
21.0635,1.52055695023401e-05,3.60100085566908e-05
21.064,1.52376035491135e-05,3.59744656118629e-05
21.0645,1.52694845123087e-05,3.59393124494629e-05
21.065,1.53012084957171e-05,3.59045525368037e-05
21.0655,1.53327716480217e-05,3.58701892873079e-05
21.066,1.53641701631223e-05,3.58362260609256e-05
21.0665,1.53954002804398e-05,3.58026661646322e-05
21.067,1.54264582852011e-05,3.57695128530046e-05
21.0675,1.54573405087035e-05,3.57367693288759e-05
21.068,1.54880433285593e-05,3.57044387440659e-05
21.0685,1.55185631689214e-05,3.5672524200187e-05
21.069,1.55488965006883e-05,3.56410287495229e-05
21.0695,1.55790398416916e-05,3.56099553959807e-05
21.07,1.56089897568636e-05,3.55793070961128e-05
21.0705,1.56387428583875e-05,3.55490867602078e-05
21.071,1.56682958058296e-05,3.55192972534499e-05
21.0715,1.56976453062539e-05,3.54899413971429e-05
21.072,1.57267881143196e-05,3.54610219699988e-05
21.0725,1.57557210323621e-05,3.54325417094882e-05
21.073,1.57844409104573e-05,3.54045033132515e-05
21.0735,1.58129446464697e-05,3.53769094405676e-05
21.074,1.5841229186085e-05,3.53497627138809e-05
21.0745,1.58692915228262e-05,3.53230657203816e-05
21.075,1.58971286980559e-05,3.52968210136412e-05
21.0755,1.59247378009626e-05,3.52710311152985e-05
21.076,1.59521159685331e-05,3.52456985167963e-05
21.0765,1.59792603855114e-05,3.52208256811667e-05
21.077,1.60061682843435e-05,3.51964150448625e-05
21.0775,1.60328369451099e-05,3.51724690196335e-05
21.078,1.60592636954456e-05,3.51489899944454e-05
21.0785,1.60854459104484e-05,3.51259803374394e-05
21.079,1.61113810125758e-05,3.51034423979302e-05
21.0795,1.61370664715319e-05,3.50813785084404e-05
21.08,1.61624998041433e-05,3.50597909867692e-05
21.0805,1.61876785742268e-05,3.50386821380927e-05
21.081,1.62126003924466e-05,3.50180542570948e-05
21.0815,1.62372629161649e-05,3.49979096301249e-05
21.082,1.62616638492825e-05,3.49782505373813e-05
21.0825,1.62858009420741e-05,3.49590792551175e-05
21.083,1.63096719910142e-05,3.49403980578696e-05
21.0835,1.63332748385984e-05,3.49222092207021e-05
21.084,1.63566073731563e-05,3.49045150214691e-05
21.0845,1.63796675286605e-05,3.48873177430908e-05
21.085,1.64024532845282e-05,3.48706196758397e-05
21.0855,1.64249626654193e-05,3.48544231196366e-05
21.086,1.64471937410289e-05,3.48387303863521e-05
21.0865,1.64691446258759e-05,3.48235438021114e-05
21.087,1.64908134790887e-05,3.48088657096001e-05
21.0875,1.65121985041869e-05,3.47946984703663e-05
21.088,1.65332979488599e-05,3.47810444671181e-05
21.0885,1.65541101047447e-05,3.47679061060122e-05
21.089,1.65746333071997e-05,3.47552858189302e-05
21.0895,1.65948659350779e-05,3.47431860657399e-05
21.09,1.66148064104985e-05,3.4731609336539e-05
21.0905,1.66344531986176e-05,3.47205581538757e-05
21.091,1.66538048073981e-05,3.47100350749448e-05
21.0915,1.66728597873791e-05,3.47000426937561e-05
21.092,1.66916167314468e-05,3.4690583643269e-05
21.0925,1.67100742746045e-05,3.46816605974938e-05
21.093,1.67282310937447e-05,3.4673276273553e-05
21.0935,1.67460859074219e-05,3.46654334337006e-05
21.094,1.67636374756277e-05,3.46581348872968e-05
21.0945,1.67808845995666e-05,3.46513834927325e-05
21.095,1.67978261214347e-05,3.4645182159303e-05
21.0955,1.68144609242004e-05,3.46395338490255e-05
21.096,1.68307879313865e-05,3.46344415783984e-05
21.0965,1.68468061068552e-05,3.46299084200995e-05
21.097,1.68625144545948e-05,3.46259375046197e-05
21.0975,1.68779120185082e-05,3.46225320218293e-05
21.098,1.68929978822043e-05,3.46196952224752e-05
21.0985,1.69077711687895e-05,3.46174304196049e-05
21.099,1.69222310406618e-05,3.46157409899161e-05
21.0995,1.69363766993063e-05,3.4614630375028e-05
21.1,1.69502073850908e-05,3.46141020826728e-05
21.1005,1.69637223770634e-05,3.46141596878035e-05
21.101,1.69769209927504e-05,3.46148068336163e-05
21.1015,1.69898025879545e-05,3.46160472324841e-05
21.102,1.70023665565544e-05,3.46178846667977e-05
21.1025,1.70146123303044e-05,3.46203229897127e-05
21.103,1.70265393786347e-05,3.46233661257988e-05
21.1035,1.70381472084521e-05,3.46270180715876e-05
21.104,1.70494353639419e-05,3.46312828960183e-05
21.1045,1.70604034263695e-05,3.46361647407768e-05
21.105,1.70710510138836e-05,3.46416678205266e-05
21.1055,1.70813777813188e-05,3.46477964230299e-05
21.106,1.70913834199997e-05,3.46545549091566e-05
21.1065,1.71010676575447e-05,3.46619477127797e-05
21.107,1.71104302576701e-05,3.46699793405564e-05
21.1075,1.71194710199953e-05,3.46786543715939e-05
21.108,1.71281897798472e-05,3.46879774569987e-05
21.1085,1.71365864080661e-05,3.46979533193101e-05
21.109,1.71446608108115e-05,3.47085867518168e-05
21.1095,1.71524129293695e-05,3.4719882617757e-05
21.11,1.71598427399604e-05,3.47318458494022e-05
21.1105,1.71669502535485e-05,3.47444814470242e-05
21.111,1.71737355156528e-05,3.47577944777463e-05
21.1115,1.71801986061595e-05,3.47717900742781e-05
21.112,1.71863396391364e-05,3.47864734335337e-05
21.1125,1.71921587626492e-05,3.48018498151339e-05
21.113,1.71976561585791e-05,3.48179245397919e-05
21.1135,1.72028320424429e-05,3.48347029875825e-05
21.114,1.72076866632146e-05,3.48521905960942e-05
21.1145,1.72122203031485e-05,3.48703928584652e-05
21.115,1.72164332776047e-05,3.48893153213021e-05
21.1155,1.72203259348755e-05,3.49089635824831e-05
21.116,1.72238986560134e-05,3.49293432888444e-05
21.1165,1.72271518546602e-05,3.49504601337523e-05
21.117,1.72300859768779e-05,3.49723198545606e-05
21.1175,1.72327015009798e-05,3.49949282299544e-05
21.118,1.72349989373628e-05,3.50182910771826e-05
21.1185,1.72369788283406e-05,3.50424142491789e-05
21.119,1.72386417479777e-05,3.50673036315746e-05
21.1195,1.72399883019236e-05,3.50929651396029e-05
21.12,1.72410191272485e-05,3.51194047148986e-05
21.1205,1.72417348922783e-05,3.51466283221937e-05
21.121,1.72421362964314e-05,3.51746419459105e-05
21.1215,1.72422240700546e-05,3.52034515866566e-05
21.122,1.72419989742598e-05,3.5233063257621e-05
21.1225,1.72414618007603e-05,3.52634829808752e-05
21.123,1.72406133717066e-05,3.52947167835818e-05
21.1235,1.72394545395224e-05,3.53267706941105e-05
21.124,1.72379861867389e-05,3.53596507380661e-05
21.1245,1.72362092258295e-05,3.53933629342284e-05
21.125,1.72341245990429e-05,3.54279132904074e-05
21.1255,1.72317332782361e-05,3.54633077992138e-05
21.126,1.72290362647062e-05,3.54995524337485e-05
21.1265,1.72260345890224e-05,3.55366531432118e-05
21.127,1.72227293108575e-05,3.55746158484336e-05
21.1275,1.72191215188188e-05,3.56134464373286e-05
21.128,1.72152123302803e-05,3.56531507602767e-05
21.1285,1.72110028912141e-05,3.56937346254315e-05
21.129,1.72064943760234e-05,3.57352037939607e-05
21.1295,1.72016879873755e-05,3.57775639752189e-05
21.13,1.71965849560363e-05,3.58208208218576e-05
21.1305,1.71911865407054e-05,3.5864979924874e-05
21.131,1.71854940278523e-05,3.59100468086038e-05
21.1315,1.71795087315544e-05,3.59560269256593e-05
21.132,1.7173231993335e-05,3.60029256518173e-05
21.1325,1.71666651820037e-05,3.60507482808613e-05
21.133,1.71598096934966e-05,3.60995000193804e-05
21.1335,1.71526669507189e-05,3.61491859815282e-05
21.134,1.71452384033881e-05,3.61998111837477e-05
21.1345,1.7137525527878e-05,3.62513805394619e-05
21.135,1.71295298270652e-05,3.63038988537373e-05
21.1355,1.71212528301757e-05,3.63573708179205e-05
21.136,1.71126960926338e-05,3.64118010042531e-05
21.1365,1.71038611959126e-05,3.64671938604671e-05
21.137,1.70947497473863e-05,3.65235537043644e-05
21.1375,1.70853633801845e-05,3.65808847183837e-05
21.138,1.70757037530497e-05,3.6639190944157e-05
21.1385,1.70657725501961e-05,3.66984762770609e-05
21.139,1.70555714811722e-05,3.67587444607645e-05
21.1395,1.70451022807262e-05,3.6819999081777e-05
21.14,1.70343667086743e-05,3.68822435640002e-05
21.1405,1.70233665497724e-05,3.69454811632877e-05
21.141,1.70121036135916e-05,3.70097149620146e-05
21.1415,1.70005797343958e-05,3.70749478636626e-05
21.142,1.69887967710248e-05,3.7141182587422e-05
21.1425,1.69767566067788e-05,3.72084216628163e-05
21.143,1.69644611493088e-05,3.72766674243527e-05
21.1435,1.69519123305086e-05,3.73459220062011e-05
21.144,1.69391121064126e-05,3.74161873369066e-05
21.1445,1.69260624570958e-05,3.74874651341393e-05
21.145,1.69127653865799e-05,3.75597568994837e-05
21.1455,1.68992229227412e-05,3.76330639132729e-05
21.146,1.68854371172245e-05,3.77073872294706e-05
21.1465,1.68714100453599e-05,3.77827276706028e-05
21.147,1.68571438060839e-05,3.78590858227459e-05
21.1475,1.6842640521865e-05,3.79364620305704e-05
21.148,1.68279023386314e-05,3.80148563924466e-05
21.1485,1.68129314257038e-05,3.80942687556132e-05
21.149,1.67977299757305e-05,3.81746987114129e-05
21.1495,1.67823002046249e-05,3.82561455905964e-05
21.15,1.67666443515073e-05,3.83386084586995e-05
21.1505,1.67507646786467e-05,3.84220861114936e-05
21.151,1.67346634714068e-05,3.85065770705135e-05
21.1515,1.67183430381921e-05,3.85920795786655e-05
21.152,1.67018057103969e-05,3.86785915959159e-05
21.1525,1.66850538423547e-05,3.87661107950652e-05
21.153,1.66680898112892e-05,3.8854634557608e-05
21.1535,1.66509160172659e-05,3.89441599696831e-05
21.154,1.66335348831455e-05,3.90346838181156e-05
21.1545,1.66159488545361e-05,3.91262025865534e-05
21.155,1.65981603997474e-05,3.92187124517016e-05
21.1555,1.6580172009744e-05,3.93122092796585e-05
21.156,1.65619861980983e-05,3.94066886223535e-05
21.1565,1.65436055009435e-05,3.95021457140938e-05
21.157,1.65250324769245e-05,3.95985754682194e-05
21.1575,1.65062697071482e-05,3.96959724738717e-05
21.158,1.64873197951314e-05,3.97943309928786e-05
21.1585,1.64681853667467e-05,3.98936449567574e-05
21.159,1.64488690701659e-05,3.99939079638415e-05
21.1595,1.64293735758003e-05,4.00951132765306e-05
21.16,1.6409701576238e-05,4.01972538186696e-05
21.1605,1.63898557861776e-05,4.03003221730574e-05
21.161,1.6369838942358e-05,4.04043105790889e-05
21.1615,1.63496538034852e-05,4.05092109305329e-05
21.162,1.63293031501543e-05,4.06150147734474e-05
21.1625,1.63087897847672e-05,4.07217133042362e-05
21.163,1.62881165314466e-05,4.08292973678481e-05
21.1635,1.62672862359455e-05,4.09377574561217e-05
21.164,1.62463017655508e-05,4.10470837062788e-05
21.1645,1.62251660089835e-05,4.11572658995678e-05
21.165,1.62038818762924e-05,4.12682934600608e-05
21.1655,1.61824522987424e-05,4.1380155453606e-05
21.166,1.61608802286969e-05,4.14928405869381e-05
21.1665,1.61391686394937e-05,4.16063372069492e-05
21.167,1.61173205253132e-05,4.17206333001219e-05
21.1675,1.60953389010403e-05,4.18357164921273e-05
21.168,1.60732268021174e-05,4.19515740475893e-05
21.1685,1.60509872843896e-05,4.20681928700175e-05
21.169,1.60286234239414e-05,4.21855595019094e-05
21.1695,1.6006138316924e-05,4.23036601250248e-05
21.17,1.59835350793731e-05,4.24224805608329e-05
21.1705,1.59608168470181e-05,4.25420062711337e-05
21.171,1.59379867750794e-05,4.26622223588545e-05
21.1715,1.59150480380574e-05,4.27831135690235e-05
21.172,1.58920038295091e-05,4.29046642899194e-05
21.1725,1.58688573618144e-05,4.30268585544006e-05
21.173,1.5845611865931e-05,4.31496800414121e-05
21.1735,1.58222705911364e-05,4.32731120776721e-05
21.174,1.57988368047586e-05,4.33971376395383e-05
21.1745,1.57753137918937e-05,4.35217393550545e-05
21.175,1.575170485511e-05,4.36468995061782e-05
21.1755,1.572801331414e-05,4.37726000311884e-05
21.176,1.57042425055582e-05,4.38988225272749e-05
21.1765,1.56803957824461e-05,4.40255482533087e-05
21.177,1.56564765140434e-05,4.41527581327929e-05
21.1775,1.56324880853861e-05,4.42804327569947e-05
21.178,1.56084338969312e-05,4.44085523882574e-05
21.1785,1.55843173641683e-05,4.45370969634921e-05
21.179,1.55601419172174e-05,4.4666046097849e-05
21.1795,1.5535911000414e-05,4.47953790885665e-05
21.18,1.55116280718803e-05,4.49250749189991e-05
21.1805,1.54872966030835e-05,4.50551122628213e-05
21.181,1.546292007838e-05,4.51854694884078e-05
21.1815,1.54385019945465e-05,4.53161246633893e-05
21.182,1.54140458602976e-05,4.54470555593811e-05
21.1825,1.53895551957894e-05,4.55782396568852e-05
21.183,1.53650335321099e-05,4.57096541503629e-05
21.1835,1.53404844107564e-05,4.5841275953477e-05
21.184,1.53159113830989e-05,4.5973081704502e-05
21.1845,1.52913180098319e-05,4.61050477718999e-05
21.185,1.52667078604125e-05,4.62371502600598e-05
21.1855,1.52420845124877e-05,4.63693650151996e-05
21.186,1.52174515513092e-05,4.65016676314272e-05
21.1865,1.51928125691379e-05,4.66340334569584e-05
21.187,1.5168171164638e-05,4.67664376004904e-05
21.1875,1.51435309422614e-05,4.68988549377269e-05
21.188,1.51188955116224e-05,4.70312601180525e-05
21.1885,1.50942684868649e-05,4.71636275713538e-05
21.189,1.50696534860204e-05,4.72959315149834e-05
21.1895,1.504505413036e-05,4.74281459608649e-05
21.19,1.50204740437378e-05,4.75602447227341e-05
21.1905,1.49959168519288e-05,4.7692201423514e-05
21.191,1.49713861819606e-05,4.78239895028195e-05
21.1915,1.49468856614392e-05,4.79555822245882e-05
21.192,1.49224189178697e-05,4.80869526848338e-05
21.1925,1.48979895779718e-05,4.82180738195166e-05
21.193,1.48736012669916e-05,4.83489184125294e-05
21.1935,1.48492576080093e-05,4.84794591037917e-05
21.194,1.4824962221243e-05,4.86096683974507e-05
21.1945,1.48007187233502e-05,4.87395186701826e-05
21.195,1.47765307267266e-05,4.88689821795906e-05
21.1955,1.47524018388029e-05,4.89980310726956e-05
21.196,1.47283356613397e-05,4.91266373945147e-05
21.1965,1.4704335789722e-05,4.92547730967222e-05
21.197,1.46804058122522e-05,4.93824100463902e-05
21.1975,1.46565493094434e-05,4.95095200348022e-05
21.198,1.46327698533125e-05,4.96360747863358e-05
21.1985,1.4609071006674e-05,4.97620459674093e-05
21.199,1.45854563224348e-05,4.9887405195487e-05
21.1995,1.45619293428894e-05,5.00121240481377e-05
21.2,1.45384935990182e-05,5.01361740721417e-05
21.2005,1.45151526097859e-05,5.02595267926406e-05
21.201,1.44919098814433e-05,5.03821537223248e-05
21.2015,1.44687689068306e-05,5.0504026370654e-05
21.202,1.44457331646837e-05,5.0625116253106e-05
21.2025,1.4422806118943e-05,5.07453949004469e-05
21.203,1.43999912180658e-05,5.08648338680214e-05
21.2035,1.4377291894341e-05,5.09834047450556e-05
21.204,1.43547115632085e-05,5.11010791639695e-05
21.2045,1.43322536225819e-05,5.12178288096948e-05
21.205,1.43099214521753e-05,5.13336254289935e-05
21.2055,1.42877184128347e-05,5.14484408397733e-05
21.206,1.42656478458743e-05,5.15622469403963e-05
21.2065,1.42437130724167e-05,5.16750157189759e-05
21.207,1.42219173927386e-05,5.17867192626583e-05
21.2075,1.42002640856223e-05,5.18973297668842e-05
21.208,1.41787564077104e-05,5.20068195446268e-05
21.2085,1.4157397592868e-05,5.21151610356007e-05
21.209,1.41361908515486e-05,5.22223268154372e-05
21.2095,1.41151393701662e-05,5.23282896048227e-05
21.21,1.40942463104725e-05,5.24330222785949e-05
21.2105,1.40735148089396e-05,5.25364978747922e-05
21.211,1.40529479761484e-05,5.26386896036537e-05
21.2115,1.40325488961822e-05,5.27395708565648e-05
21.212,1.40123206260259e-05,5.28391152149457e-05
21.2125,1.39922661949718e-05,5.29372964590791e-05
21.213,1.39723886040298e-05,5.3034088576875e-05
21.2135,1.39526908253448e-05,5.31294657725688e-05
21.214,1.39331758016201e-05,5.32234024753504e-05
21.2145,1.39138464455463e-05,5.33158733479227e-05
21.215,1.38947056392374e-05,5.34068532949857e-05
21.2155,1.38757562336734e-05,5.34963174716452e-05
21.216,1.38570010481487e-05,5.35842412917433e-05
21.2165,1.38384428697283e-05,5.36706004361079e-05
21.217,1.38200844527095e-05,5.37553708607197e-05
21.2175,1.3801928518091e-05,5.38385288047932e-05
