Time_s,BCL_Envelope_Smoothed,BCC_Envelope_Smoothed
0,5.93501040673398e-07,1.32127428514063e-06
0.0005,6.74178408303813e-07,1.80164808618844e-06
0.001,7.54300042863521e-07,2.27874519459072e-06
0.0015,8.33867733983426e-07,2.7525755233885e-06
0.002,9.12883271294447e-07,3.22314898562287e-06
0.0025,9.91348444427487e-07,3.69047549433492e-06
0.003,1.06926504301346e-06,4.15456496256567e-06
0.0035,1.14663485668327e-06,4.61542730335624e-06
0.004,1.22345967506784e-06,5.0730724297477e-06
0.0045,1.29974128779807e-06,5.52751025478111e-06
0.005,1.37548148450488e-06,5.97875069149755e-06
0.0055,1.45068205481916e-06,6.42680365293807e-06
0.006,1.52534478837184e-06,6.87167905214379e-06
0.0065,1.59947147479383e-06,7.31338680215574e-06
0.007,1.67306390371602e-06,7.751936816015e-06
0.0075,1.74612386476934e-06,8.18733900676266e-06
0.008,1.8186531475847e-06,8.61960328743978e-06
0.0085,1.890653541793e-06,9.04873957108746e-06
0.009,1.96212683702515e-06,9.47475777074673e-06
0.0095,2.03307482291207e-06,9.89766779945868e-06
0.01,2.10349928908466e-06,1.03174795702644e-05
0.0105,2.17340202517384e-06,1.07342029962049e-05
0.011,2.24278482081052e-06,1.11478479903214e-05
0.0115,2.3116494656256e-06,1.15584244656548e-05
0.012,2.37999774925e-06,1.19659423352463e-05
0.0125,2.44783146131462e-06,1.23704115121369e-05
0.013,2.51515239145038e-06,1.27718419093677e-05
0.0135,2.58196232928818e-06,1.31702434399798e-05
0.014,2.64826306445895e-06,1.35656260170142e-05
0.0145,2.71405638659358e-06,1.3957999553512e-05
0.015,2.77934408532299e-06,1.43473739625143e-05
0.0155,2.84412795027808e-06,1.47337591570622e-05
0.016,2.90840977108977e-06,1.51171650501967e-05
0.0165,2.97219133738897e-06,1.54976015549589e-05
0.017,3.03547443880659e-06,1.58750785843899e-05
0.0175,3.09826086497354e-06,1.62496060515308e-05
0.018,3.16055240552073e-06,1.66211938694225e-05
0.0185,3.22235085007906e-06,1.69898519511063e-05
0.019,3.28365798827945e-06,1.73555902096232e-05
0.0195,3.34447560975282e-06,1.77184185580142e-05
0.02,3.40480550413006e-06,1.80783469093204e-05
0.0205,3.46464946104209e-06,1.84353851765829e-05
0.021,3.52400927011983e-06,1.87895432728428e-05
0.0215,3.58288672099417e-06,1.91408311111411e-05
0.022,3.64128360329603e-06,1.94892586045189e-05
0.0225,3.69920170665633e-06,1.98348356660174e-05
0.023,3.75664282070596e-06,2.01775722086775e-05
0.0235,3.81360873507584e-06,2.05174781455402e-05
0.024,3.87010123939689e-06,2.08545633896469e-05
0.0245,3.92612212330001e-06,2.11888378540383e-05
0.025,3.98167317641611e-06,2.15203114517558e-05
0.0255,4.0367561883761e-06,2.18489940958402e-05
0.026,4.0913729488109e-06,2.21748956993328e-05
0.0265,4.14552524735141e-06,2.24980261752746e-05
0.027,4.19921487362854e-06,2.28183954367065e-05
0.0275,4.25244361727319e-06,2.31360133966698e-05
0.028,4.3052132679163e-06,2.34508899682055e-05
0.0285,4.35752561518876e-06,2.37630350643547e-05
0.029,4.40938244872148e-06,2.40724585981583e-05
0.0295,4.46078555814538e-06,2.43791704826576e-05
0.03,4.51173673309135e-06,2.46831806308936e-05
0.0305,4.56223776319032e-06,2.49844989559074e-05
0.031,4.61229043807321e-06,2.52831353707399e-05
0.0315,4.6618965473709e-06,2.55790997884324e-05
0.032,4.71105788071431e-06,2.58724021220258e-05
0.0325,4.75977622773437e-06,2.61630522845613e-05
0.033,4.80805337806197e-06,2.64510601890799e-05
0.0335,4.85589112132803e-06,2.67364357486227e-05
0.034,4.90329124716344e-06,2.70191888762308e-05
0.0345,4.95025554519913e-06,2.72993294849452e-05
0.035,4.99678580506601e-06,2.7576867487807e-05
0.0355,5.042883816395e-06,2.78518127978573e-05
0.036,5.08855136881698e-06,2.81241753281372e-05
0.0365,5.13379025196288e-06,2.83939649916877e-05
0.037,5.17860225546361e-06,2.86611917015499e-05
0.0375,5.22298916895007e-06,2.89258653707649e-05
0.038,5.26695278205319e-06,2.91879959123737e-05
0.0385,5.31049488440386e-06,2.94475932394175e-05
0.039,5.353617265633e-06,2.97046672649373e-05
0.0395,5.3963217153715e-06,2.99592279019741e-05
0.04,5.43861002325031e-06,3.02112850635691e-05
0.0405,5.48048397890032e-06,3.04608486627633e-05
0.041,5.52194537195243e-06,3.07079286125978e-05
0.0415,5.56299599203756e-06,3.09525348261136e-05
0.042,5.60363762878663e-06,3.11946772163519e-05
0.0425,5.64387207183052e-06,3.14343656963537e-05
0.043,5.68370111080018e-06,3.16716101791601e-05
0.0435,5.72312653532648e-06,3.19064205778121e-05
0.044,5.76215013504037e-06,3.21388068053509e-05
0.0445,5.80077369957272e-06,3.23687787748175e-05
0.045,5.83899901855447e-06,3.25963463992529e-05
0.0455,5.87682788161653e-06,3.28215195916983e-05
0.046,5.91426207838979e-06,3.30443082651947e-05
0.0465,5.95130339850518e-06,3.32647223327833e-05
0.047,5.98795363159359e-06,3.3482771707505e-05
0.0475,6.02421456728594e-06,3.36984663024009e-05
0.048,6.06008799521315e-06,3.39118160305121e-05
0.0485,6.09557570500613e-06,3.41228308048798e-05
0.049,6.13067948629577e-06,3.43315205385449e-05
0.0495,6.16540112871299e-06,3.45378951445485e-05
0.05,6.19974242188871e-06,3.47419645359318e-05
0.0505,6.23370515545384e-06,3.49437386257357e-05
0.051,6.26729111903927e-06,3.51432273270013e-05
0.0515,6.30050210227592e-06,3.53404405527698e-05
0.052,6.33333989479472e-06,3.55353882160823e-05
0.0525,6.36580628622655e-06,3.57280802299796e-05
0.053,6.39790306620235e-06,3.59185265075031e-05
0.0535,6.429632024353e-06,3.61067369616936e-05
0.054,6.46099495030943e-06,3.62927215055923e-05
0.0545,6.49199363370254e-06,3.64764900522403e-05
0.055,6.52262986416325e-06,3.66580525146786e-05
0.0555,6.55290543132246e-06,3.68374188059484e-05
0.056,6.58282212481109e-06,3.70145988390906e-05
0.0565,6.61238173426005e-06,3.71896025271464e-05
0.057,6.64158604930024e-06,3.73624397831568e-05
0.0575,6.67043685956258e-06,3.7533120520163e-05
0.058,6.69893595467797e-06,3.77016546512058e-05
0.0585,6.72708512427732e-06,3.78680520893266e-05
0.059,6.75488615799156e-06,3.80323227475663e-05
0.0595,6.78234084545159e-06,3.81944765389659e-05
0.06,6.80945097628831e-06,3.83545233765667e-05
0.0605,6.83621834013264e-06,3.85124731734096e-05
0.061,6.86264472661548e-06,3.86683358425357e-05
0.0615,6.88873192536775e-06,3.88221212969861e-05
0.062,6.91448172602037e-06,3.89738394498018e-05
0.0625,6.93989591820423e-06,3.91235002140241e-05
0.063,6.96497629155024e-06,3.92711135026937e-05
0.0635,6.98972463568934e-06,3.9416689228852e-05
0.064,7.0141427402524e-06,3.956023730554e-05
0.0645,7.03823239487035e-06,3.97017676457986e-05
0.065,7.06199538917411e-06,3.98412901626691e-05
0.0655,7.08543351279458e-06,3.99788147691923e-05
0.066,7.10854855536266e-06,4.01143513784097e-05
0.0665,7.13134230650927e-06,4.0247909903362e-05
0.067,7.15381655586532e-06,4.03795002570904e-05
0.0675,7.17597309306173e-06,4.05091323526359e-05
0.068,7.1978137077294e-06,4.06368161030398e-05
0.0685,7.21934018949923e-06,4.07625614213429e-05
0.069,7.24055432800215e-06,4.08863782205864e-05
0.0695,7.26145791286906e-06,4.10082764138114e-05
0.07,7.28205273373087e-06,4.11282659140589e-05
0.0705,7.3023405802185e-06,4.124635663437e-05
0.071,7.32232324196284e-06,4.13625584877858e-05
0.0715,7.34200250859482e-06,4.14768813873473e-05
0.072,7.36138016974534e-06,4.15893352460957e-05
0.0725,7.38045801504531e-06,4.16999299770719e-05
0.073,7.39923783412566e-06,4.18086754933172e-05
0.0735,7.41772141661726e-06,4.19155817078724e-05
0.074,7.43591055215105e-06,4.20206585337788e-05
0.0745,7.45380703035793e-06,4.21239158840774e-05
0.075,7.47141264086883e-06,4.22253636718093e-05
0.0755,7.48872917331463e-06,4.23250118100154e-05
0.076,7.50575841732625e-06,4.2422870211737e-05
0.0765,7.52250216253462e-06,4.25189487900151e-05
0.077,7.53896219857063e-06,4.26132574578908e-05
0.0775,7.55514031506519e-06,4.2705806128405e-05
0.078,7.57103830164921e-06,4.2796604714599e-05
0.0785,7.58665794795361e-06,4.28856631295137e-05
0.079,7.60200104360931e-06,4.29729912861903e-05
0.0795,7.61706937824719e-06,4.30585990976698e-05
0.08,7.63186474149818e-06,4.31424964769933e-05
0.0805,7.64638892299319e-06,4.32246933372019e-05
0.081,7.66064371236312e-06,4.33051995913366e-05
0.0815,7.67463089923889e-06,4.33840251524385e-05
0.082,7.68835227325141e-06,4.34611799335487e-05
0.0825,7.70180962403158e-06,4.35366738477083e-05
0.083,7.71500474121032e-06,4.36105168079584e-05
0.0835,7.72793941441854e-06,4.36827187273399e-05
0.084,7.74061543328715e-06,4.3753289518894e-05
0.0845,7.75303458744704e-06,4.38222390956617e-05
0.085,7.76519866652915e-06,4.38895773706842e-05
0.0855,7.77710946016439e-06,4.39553142570025e-05
0.086,7.78876875798366e-06,4.40194596676576e-05
0.0865,7.80017834961785e-06,4.40820235156908e-05
0.087,7.8113400246979e-06,4.41430157141429e-05
0.0875,7.82225557285471e-06,4.4202446176055e-05
0.088,7.83292678371918e-06,4.42603248144685e-05
0.0885,7.84335544692223e-06,4.4316661542424e-05
0.089,7.85354335209478e-06,4.4371466272963e-05
0.0895,7.86349228886773e-06,4.44247489191263e-05
0.09,7.87320404687199e-06,4.44765193939551e-05
0.0905,7.88268041573847e-06,4.45267876104903e-05
0.091,7.89192318509808e-06,4.45755634817732e-05
0.0915,7.90093414458174e-06,4.46228569208448e-05
0.092,7.90971508382033e-06,4.46686778407462e-05
0.0925,7.9182677924448e-06,4.47130361545182e-05
0.093,7.92659406008602e-06,4.47559417752023e-05
0.0935,7.93469567637494e-06,4.47974046158393e-05
0.094,7.94257443094246e-06,4.48374345894704e-05
0.0945,7.95023211341947e-06,4.48760416091366e-05
0.095,7.9576705134369e-06,4.49132355878789e-05
0.0955,7.96489142062564e-06,4.49490264387386e-05
0.096,7.97189662461662e-06,4.49834240747565e-05
0.0965,7.97868791504074e-06,4.50164384089738e-05
0.097,7.98526708152892e-06,4.50480793544318e-05
0.0975,7.99163591371206e-06,4.50783568241711e-05
0.098,7.99779620122107e-06,4.51072807312332e-05
0.0985,8.00374973368687e-06,4.51348609886589e-05
0.099,8.00949830074036e-06,4.51611075094894e-05
0.0995,8.01504369201245e-06,4.51860302067658e-05
0.1,8.02038769713408e-06,4.52096389935291e-05
0.1005,8.02553210573612e-06,4.52319437828203e-05
0.101,8.03047870744949e-06,4.52529544876807e-05
0.1015,8.03522929190511e-06,4.52726810211511e-05
0.102,8.03978564873388e-06,4.52911332962728e-05
0.1025,8.04414956756673e-06,4.53083212260868e-05
0.103,8.04832283803453e-06,4.53242547236341e-05
0.1035,8.05230724976825e-06,4.53389437019558e-05
0.104,8.05610459239874e-06,4.53523980740931e-05
0.1045,8.05971665555696e-06,4.5364627753087e-05
0.105,8.06314522887377e-06,4.53756426519784e-05
0.1055,8.06639210198012e-06,4.53854526838086e-05
0.106,8.06945906450692e-06,4.53940677616187e-05
0.1065,8.07234790608505e-06,4.54014977984496e-05
0.107,8.07506041634545e-06,4.54077527073424e-05
0.1075,8.07759838491901e-06,4.54128424013383e-05
0.108,8.07996360143666e-06,4.54167767934782e-05
0.1085,8.08215785552928e-06,4.54195657968033e-05
0.109,8.08418293682781e-06,4.54212193243546e-05
0.1095,8.08604063496314e-06,4.54217472891733e-05
0.11,8.0877327395662e-06,4.54211596043003e-05
0.1105,8.08926104026789e-06,4.54194661827768e-05
0.111,8.09062732669912e-06,4.54166769376438e-05
0.1115,8.0918333884908e-06,4.54128017819424e-05
0.112,8.09288101527383e-06,4.54078506287137e-05
0.1125,8.09377199667915e-06,4.54018333909987e-05
0.113,8.09450812233762e-06,4.53947599818386e-05
0.1135,8.09509118188021e-06,4.53866403142744e-05
0.114,8.09552296493779e-06,4.53774843013471e-05
0.1145,8.09580526114128e-06,4.53673018560979e-05
0.115,8.09593986012159e-06,4.53561028915677e-05
0.1155,8.09592855150964e-06,4.53438973207978e-05
0.116,8.09577312493631e-06,4.53306950568291e-05
0.1165,8.09547537003256e-06,4.53165060127028e-05
0.117,8.09503707642926e-06,4.53013401014599e-05
0.1175,8.09446003375733e-06,4.52852072361414e-05
0.118,8.09374603164768e-06,4.52681173297885e-05
0.1185,8.09289685973123e-06,4.52500802954423e-05
0.119,8.09191430763889e-06,4.52311060461436e-05
0.1195,8.09080016500155e-06,4.52112044949338e-05
0.12,8.08955622145014e-06,4.51903855548539e-05
0.1205,8.08818426661557e-06,4.51686591389448e-05
0.121,8.08668609012873e-06,4.51460351602478e-05
0.1215,8.08506348162056e-06,4.51225235318038e-05
0.122,8.08331823072194e-06,4.5098134166654e-05
0.1225,8.0814521270638e-06,4.50728769778393e-05
0.123,8.07946696027705e-06,4.5046761878401e-05
0.1235,8.07736451999259e-06,4.501979878138e-05
0.124,8.07514659584134e-06,4.49919975998174e-05
0.1245,8.07281497745421e-06,4.49633682467543e-05
0.125,8.07037145446209e-06,4.49339206352319e-05
0.1255,8.07008029244696e-06,4.49137236330707e-05
0.126,8.06967053877261e-06,4.48926626813572e-05
0.1265,8.0691447966411e-06,4.48707519482032e-05
0.127,8.06850566857805e-06,4.48480055762276e-05
0.1275,8.06775575588906e-06,4.48244376799391e-05
0.128,8.06689765811748e-06,4.48000623431399e-05
0.1285,8.06593397250416e-06,4.47748936163525e-05
0.129,8.06486729344859e-06,4.47489455142693e-05
0.1295,8.06370021197235e-06,4.47222320132268e-05
0.13,8.06243531518429e-06,4.46947670487036e-05
0.1305,8.06107518574807e-06,4.46665645128442e-05
0.131,8.05962240135199e-06,4.46376382520082e-05
0.1315,8.05807953418097e-06,4.46080020643465e-05
0.132,8.05644915039153e-06,4.45776696974041e-05
0.1325,8.05473380958902e-06,4.45466548457504e-05
0.133,8.05293606430778e-06,4.45149711486388e-05
0.1335,8.0510584594942e-06,4.4482632187694e-05
0.134,8.04910353199287e-06,4.44496514846287e-05
0.1345,8.04707381003565e-06,4.44160424989913e-05
0.135,8.04497181273434e-06,4.43818186259432e-05
0.1355,8.04280004957629e-06,4.43469931940667e-05
0.136,8.0405610199239e-06,4.43115794632058e-05
0.1365,8.03825721251753e-06,4.42755906223377e-05
0.137,8.03589110498215e-06,4.42390397874771e-05
0.1375,8.03346516333781e-06,4.42019399996138e-05
0.138,8.0309818415142e-06,4.41643042226834e-05
0.1385,8.02844358086915e-06,4.41261453415718e-05
0.139,8.02585280971131e-06,4.40874761601544e-05
0.1395,8.02321194282715e-06,4.404830939937e-05
0.14,8.02052338101258e-06,4.40086576953287e-05
0.1405,8.01778951060864e-06,4.39685335974572e-05
0.141,8.01501270304228e-06,4.39279495666789e-05
0.1415,8.01219531437163e-06,4.38869179736304e-05
0.142,8.00933968483617e-06,4.38454510969148e-05
0.1425,8.00644813841187e-06,4.3803561121392e-05
0.143,8.00352298237142e-06,4.37612601365067e-05
0.1435,8.00056650684949e-06,4.37185601346536e-05
0.144,7.99758098441355e-06,4.36754730095802e-05
0.1445,7.99456866963962e-06,4.36320105548293e-05
0.145,7.99153179869395e-06,4.35881844622181e-05
0.1455,7.9884725889199e-06,4.35440063203577e-05
0.146,7.98539323843061e-06,4.34994876132104e-05
0.1465,7.98229592570749e-06,4.34546397186866e-05
0.147,7.97918280920443e-06,4.34094739072812e-05
0.1475,7.97605602695789e-06,4.33640013407492e-05
0.148,7.97291769620314e-06,4.33182330708213e-05
0.1485,7.9697699129965e-06,4.32721800379586e-05
0.149,7.96661475184368e-06,4.32258530701483e-05
0.1495,7.96345426533449e-06,4.31792628817376e-05
0.15,7.96029048378375e-06,4.31324200723103e-05
0.1505,7.95712541487865e-06,4.30853351256006e-05
0.151,7.95396104333256e-06,4.30380184084493e-05
0.1515,7.95079933054535e-06,4.29904801697987e-05
0.152,7.94764221427037e-06,4.29427305397287e-05
0.1525,7.94449160828797e-06,4.28947795285326e-05
0.153,7.94134940208588e-06,4.28466370258331e-05
0.1535,7.9382174605463e-06,4.27983127997386e-05
0.154,7.93509762363983e-06,4.27498164960396e-05
0.1545,7.93199170612634e-06,4.27011576374454e-05
0.155,7.92890149726287e-06,4.265234562286e-05
0.1555,7.92582876051832e-06,4.26033897266994e-05
0.156,7.92277523329541e-06,4.25542990982471e-05
0.1565,7.91974262665969e-06,4.25050827610508e-05
0.157,7.91673262507571e-06,4.24557496123577e-05
0.1575,7.91374688615022e-06,4.24063084225902e-05
0.158,7.91078704038296e-06,4.23567678348606e-05
0.1585,7.90785469092437e-06,4.23071363645244e-05
0.159,7.90495141334078e-06,4.22574223987741e-05
0.1595,7.90207875538688e-06,4.2207634196271e-05
0.16,7.89923823678563e-06,4.21577798868155e-05
0.1605,7.89643134901543e-06,4.21078674710568e-05
0.161,7.89365955510488e-06,4.20579048202401e-05
0.1615,7.89092428943476e-06,4.20078996759931e-05
0.162,7.88822695754775e-06,4.1957859650149e-05
0.1625,7.88556893596529e-06,4.1907792224608e-05
0.163,7.88295157201224e-06,4.18577047512369e-05
0.1635,7.8803761836488e-06,4.18076044518046e-05
0.164,7.87784405931009e-06,4.17574984179558e-05
0.1645,7.87535645775315e-06,4.17073936112208e-05
0.165,7.87291460791155e-06,4.16572968630623e-05
0.1655,7.87051970875734e-06,4.1607214874958e-05
0.166,7.86817292917073e-06,4.155715421852e-05
0.1665,7.86587540781715e-06,4.15071213356486e-05
0.167,7.86362825303177e-06,4.14571225387233e-05
0.1675,7.86143254271175e-06,4.14071640108276e-05
0.168,7.85928932421565e-06,4.13572518060097e-05
0.1685,7.85719961427058e-06,4.13073918495767e-05
0.169,7.85516439888686e-06,4.12575899384245e-05
0.1695,7.85318463327982e-06,4.12078517414002e-05
0.17,7.85126124179937e-06,4.11581827997001e-05
0.1705,7.84939511786691e-06,4.11085885272985e-05
0.171,7.84758712391959e-06,4.10590742114119e-05
0.1715,7.84583809136203e-06,4.10096450129949e-05
0.172,7.84414882052543e-06,4.09603059672678e-05
0.1725,7.84252008063406e-06,4.0911061984277e-05
0.173,7.84095260977898e-06,4.08619178494875e-05
0.1735,7.83944711489929e-06,4.08128782244042e-05
0.174,7.8380042717705e-06,4.07639476472271e-05
0.1745,7.83662472500028e-06,4.07151305335345e-05
0.175,7.83530908803144e-06,4.06664311769974e-05
0.1755,7.83405794315215e-06,4.06178537501228e-05
0.176,7.83287184151346e-06,4.05694023050271e-05
0.1765,7.83175130315384e-06,4.05210807742363e-05
0.177,7.83069681703112e-06,4.04728929715166e-05
0.1775,7.82970884106144e-06,4.04248425927314e-05
0.178,7.82878780216526e-06,4.03769332167257e-05
0.1785,7.82793409632072e-06,4.03291683062379e-05
0.179,7.8271480886238e-06,4.02815512088373e-05
0.1795,7.82643011335571e-06,4.02340851578876e-05
0.18,7.82578047405707e-06,4.01867732735356e-05
0.1805,7.82519944360943e-06,4.01396185637253e-05
0.181,7.82468726432327e-06,4.00926239252346e-05
0.1815,7.8242441480333e-06,4.00457921447381e-05
0.182,7.82387027620037e-06,3.99991258998905e-05
0.1825,7.82356580002022e-06,3.99526277604342e-05
0.183,7.8233308405392e-06,3.99063001893289e-05
0.1835,7.82316548877639e-06,3.98601455439011e-05
0.184,7.82306980585271e-06,3.98141660770167e-05
0.1845,7.82304382312628e-06,3.97683639382717e-05
0.185,7.82308754233479e-06,3.97227411752045e-05
0.1855,7.82320093574389e-06,3.96772997345251e-05
0.186,7.82338394630237e-06,3.96320414633653e-05
0.1865,7.82363648780355e-06,3.95869681105446e-05
0.187,7.82395844505302e-06,3.95420813278539e-05
0.1875,7.82434967404254e-06,3.94973826713569e-05
0.188,7.82481000213028e-06,3.94528736027061e-05
0.1885,7.82533922822692e-06,3.9408555490475e-05
0.189,7.82593712298806e-06,3.93644296115043e-05
0.1895,7.82660342901223e-06,3.93204971522635e-05
0.19,7.82733786104511e-06,3.92767592102245e-05
0.1905,7.82814010618927e-06,3.92332167952493e-05
0.191,7.82900982411983e-06,3.91898708309889e-05
0.1915,7.82994664730564e-06,3.91467221562949e-05
0.192,7.83095018123595e-06,3.91037715266409e-05
0.1925,7.8320200046527e-06,3.9061019615555e-05
0.193,7.83315566978809e-06,3.9018467016062e-05
0.1935,7.83435670260739e-06,3.8976114242134e-05
0.194,7.83562260305713e-06,3.89339617301499e-05
0.1945,7.83695284531817e-06,3.88920098403626e-05
0.195,7.83834687806403e-06,3.88502588583728e-05
0.1955,7.83980412472389e-06,3.88087089966103e-05
0.196,7.84132398375072e-06,3.87673603958198e-05
0.1965,7.84290582889393e-06,3.87262131265525e-05
0.197,7.84454900947681e-06,3.86852671906625e-05
0.1975,7.84625285067834e-06,3.86445225228067e-05
0.198,7.84801665381977e-06,3.86039789919474e-05
0.1985,7.84983969665524e-06,3.85636364028586e-05
0.199,7.85172123366683e-06,3.85234944976332e-05
0.1995,7.85366049636384e-06,3.84835529571921e-05
0.2,7.85565669358596e-06,3.84438114027937e-05
0.2005,7.85770901181057e-06,3.8404269397543e-05
0.201,7.85981661546377e-06,3.83649264479011e-05
0.2015,7.86197864723532e-06,3.83257820051921e-05
0.202,7.86419422839717e-06,3.82868354671091e-05
0.2025,7.8664624591256e-06,3.82480861792171e-05
0.203,7.86878241882673e-06,3.82095334364524e-05
0.2035,7.87115316646558e-06,3.81711764846192e-05
0.204,7.87357374089825e-06,3.81330145218802e-05
0.2045,7.87604316120729e-06,3.80950467002434e-05
0.205,7.8785604270402e-06,3.80572721270422e-05
0.2055,7.88112451895096e-06,3.80196898664092e-05
0.206,7.88373439874415e-06,3.79822989407436e-05
0.2065,7.88638900982226e-06,3.794509833217e-05
0.207,7.88908727753524e-06,3.79080869839898e-05
0.2075,7.89182810953302e-06,3.78712638021228e-05
0.208,7.89461039612016e-06,3.78346276565398e-05
0.2085,7.89743301061319e-06,3.77981773826857e-05
0.209,7.90029480969999e-06,3.77619117828907e-05
0.2095,7.90319463380143e-06,3.7725829627771e-05
0.21,7.90613130743519e-06,3.76899296576178e-05
0.2105,7.90910363958152e-06,3.76542105837736e-05
0.211,7.91211042405078e-06,3.76186710899962e-05
0.2115,7.91515043985297e-06,3.75833098338083e-05
0.212,7.91822245156891e-06,3.75481254478343e-05
0.2125,7.92132520972301e-06,3.75131165411217e-05
0.213,7.92445745115758e-06,3.74782817004487e-05
0.2135,7.92761789940865e-06,3.74436194916152e-05
0.214,7.93080526508303e-06,3.74091284607187e-05
0.2145,7.93401824623677e-06,3.73748071354136e-05
0.215,7.93725552875476e-06,3.7340654026154e-05
0.2155,7.94051578673118e-06,3.73066676274194e-05
0.216,7.94379768285149e-06,3.72728464189224e-05
0.2165,7.94709986877473e-06,3.72391888667988e-05
0.217,7.95042098551725e-06,3.72056934247798e-05
0.2175,7.95375966383665e-06,3.71723585353447e-05
0.218,7.95711452461679e-06,3.71391826308557e-05
0.2185,7.9604841792533e-06,3.71061641346727e-05
0.219,7.96386723003948e-06,3.70733014622489e-05
0.2195,7.9672622705528e-06,3.70405930222069e-05
0.22,7.97066788604169e-06,3.7008037217394e-05
0.2205,7.97408265381262e-06,3.69756324459183e-05
0.221,7.97750514361739e-06,3.69433771021636e-05
0.2215,7.98093391804057e-06,3.69112695777838e-05
0.222,7.984367532887e-06,3.68793082626767e-05
0.2225,7.98780453756927e-06,3.6847491545937e-05
0.223,7.9912434754951e-06,3.68158178167871e-05
0.2235,7.99468288445464e-06,3.67842854654888e-05
0.224,7.99812129700751e-06,3.67528928842311e-05
0.2245,8.00155724086949e-06,3.6721638467999e-05
0.225,8.00498923929901e-06,3.66905206154192e-05
0.2255,8.00841581148308e-06,3.66595377295844e-05
0.226,8.01183547292279e-06,3.66286882188578e-05
0.2265,8.0152467358183e-06,3.65979704976535e-05
0.227,8.01864810945315e-06,3.65673829871971e-05
0.2275,8.02203810057798e-06,3.65369241162645e-05
0.228,8.02541521379339e-06,3.65065923218984e-05
0.2285,8.02877795193215e-06,3.64763860501045e-05
0.229,8.03212481644038e-06,3.64463037565255e-05
0.2295,8.03545430775797e-06,3.6416343907094e-05
0.23,8.03876492569793e-06,3.63865049786643e-05
0.2305,8.04205516982455e-06,3.63567854596235e-05
0.231,8.04532353983077e-06,3.63271838504806e-05
0.2315,8.04856853591407e-06,3.62976986644358e-05
0.232,8.05178865915126e-06,3.62683284279288e-05
0.2325,8.05498241187191e-06,3.62390716811662e-05
0.233,8.05814829803053e-06,3.62099269786294e-05
0.2335,8.06128482357709e-06,3.6180892889561e-05
0.234,8.06439049682636e-06,3.61519679984332e-05
0.2345,8.06746382882543e-06,3.61231509053942e-05
0.235,8.07050333371973e-06,3.60944402266965e-05
0.2355,8.0735075291174e-06,3.60658345951057e-05
0.236,8.07647493645191e-06,3.60373326602895e-05
0.2365,8.07940408134282e-06,3.60089330891887e-05
0.237,8.08229349395484e-06,3.59806345663688e-05
0.2375,8.08514170935479e-06,3.59524357943531e-05
0.238,8.0879472678668e-06,3.59243354939393e-05
0.2385,8.09070871542535e-06,3.58963324044959e-05
0.239,8.09342460392629e-06,3.58684252842429e-05
0.2395,8.09609349157579e-06,3.58406129105144e-05
0.24,8.09871394323702e-06,3.58128940800043e-05
0.2405,8.10128453077473e-06,3.57852676089955e-05
0.241,8.10380383339741e-06,3.57577323335731e-05
0.2415,8.10627043799724e-06,3.57302871098208e-05
0.242,8.10868293948774e-06,3.57029308140026e-05
0.2425,8.11103994113872e-06,3.56756623427285e-05
0.243,8.11334005490918e-06,3.5648480613105e-05
0.2435,8.11558190177735e-06,3.56213845628721e-05
0.244,8.11776411206839e-06,3.55943731505249e-05
0.2445,8.11988532577947e-06,3.55674453554217e-05
0.245,8.12194419290207e-06,3.55406001778785e-05
0.2455,8.12393937374182e-06,3.55138366392506e-05
0.246,8.12586953923548e-06,3.54871537820005e-05
0.2465,8.12773337126524e-06,3.54605506697544e-05
0.247,8.12952956297005e-06,3.54340263873462e-05
0.2475,8.13125681905442e-06,3.54075800408492e-05
0.248,8.13291385609403e-06,3.53812107575975e-05
0.2485,8.13449940283856e-06,3.53549176861958e-05
0.249,8.13601220051153e-06,3.5328699996519e-05
0.2495,8.13745100310725e-06,3.53025568797008e-05
0.25,8.13881457768448e-06,3.52764875481145e-05
0.2505,8.1401017046573e-06,3.52504912353419e-05
0.251,8.14131117808262e-06,3.52245671961353e-05
0.2515,8.14244180594477e-06,3.51987147063697e-05
0.252,8.14349241043668e-06,3.51729330629874e-05
0.2525,8.14446182823804e-06,3.51472215839348e-05
0.253,8.14534891079003e-06,3.51215796080913e-05
0.2535,8.14615252456687e-06,3.50960064951918e-05
0.254,8.14687155134402e-06,3.50705016257422e-05
0.2545,8.14750488846298e-06,3.50450644009285e-05
0.255,8.14805144909278e-06,3.50196942425207e-05
0.2555,8.14851016248793e-06,3.499439059277e-05
0.256,8.14887997424298e-06,3.49691529143016e-05
0.2565,8.14915984654368e-06,3.49439806900031e-05
0.257,8.14934875841438e-06,3.49188734229065e-05
0.2575,8.14944570596212e-06,3.48938306360684e-05
0.258,8.14944970261703e-06,3.48688518724441e-05
0.2585,8.14935977936908e-06,3.484393669476e-05
0.259,8.14917498500125e-06,3.48190846853811e-05
0.2595,8.14889438631905e-06,3.47942954461764e-05
0.26,8.14851706837623e-06,3.47695685983814e-05
0.2605,8.14804213469683e-06,3.47449037824582e-05
0.261,8.14746870749346e-06,3.47203006579526e-05
0.2615,8.14679592788185e-06,3.46957589033505e-05
0.262,8.14602295609137e-06,3.46712782159316e-05
0.2625,8.14514897167193e-06,3.46468583116216e-05
0.263,8.1441731736969e-06,3.46224989248436e-05
0.2635,8.14309478096211e-06,3.45981998083678e-05
0.264,8.14191303218093e-06,3.45739607331603e-05
0.2645,8.14062718617536e-06,3.45497814882316e-05
0.265,8.13923652206324e-06,3.45256618804838e-05
0.2655,8.13774033944118e-06,3.45016017345572e-05
0.266,8.13613795856382e-06,3.44776008926774e-05
0.2665,8.13442872051864e-06,3.4453659214501e-05
0.267,8.13261198739688e-06,3.44297765769613e-05
0.2675,8.13068714246033e-06,3.44059528741147e-05
0.268,8.12865359030385e-06,3.4382188016986e-05
0.2685,8.12651075701383e-06,3.4358481933414e-05
0.269,8.12425809032231e-06,3.43348345678978e-05
0.2695,8.12189505975702e-06,3.4311245881442e-05
0.27,8.11942115678698e-06,3.4287715851403e-05
0.2705,8.11683589496401e-06,3.42642444713357e-05
0.271,8.11413881005978e-06,3.42408317508388e-05
0.2715,8.11132946019854e-06,3.42174777154024e-05
0.272,8.10840742598563e-06,3.41941824062545e-05
0.2725,8.10537231063146e-06,3.41709458802081e-05
0.273,8.10222374007116e-06,3.41477682095089e-05
0.2735,8.09896136307984e-06,3.41246494816826e-05
0.274,8.09558485138335e-06,3.41015897993831e-05
0.2745,8.09209389976462e-06,3.40785892802404e-05
0.275,8.0884882261656e-06,3.40556480567089e-05
0.2755,8.0847675717846e-06,3.40327662759165e-05
0.276,8.08093170116912e-06,3.40099440995124e-05
0.2765,8.07698040230427e-06,3.39871817035159e-05
0.277,8.07291348669655e-06,3.39644792781658e-05
0.2775,8.06873078945309e-06,3.39418370277685e-05
0.278,8.06443216935634e-06,3.39192551705466e-05
0.2785,8.06001750893404e-06,3.3896733938488e-05
0.279,8.05548671452491e-06,3.38742735771941e-05
0.2795,8.05083971633919e-06,3.38518743457273e-05
0.28,8.04607646851502e-06,3.38295365164601e-05
0.2805,8.04119694916991e-06,3.38072603749217e-05
0.281,8.03620116044755e-06,3.37850462196458e-05
0.2815,8.03108912855999e-06,3.37628943620175e-05
0.282,8.025860903825e-06,3.37408051261195e-05
0.2825,8.02051656069889e-06,3.3718778848578e-05
0.283,8.01505619780436e-06,3.36968158784085e-05
0.2835,8.0094799379537e-06,3.36749165768606e-05
0.284,8.00378792816732e-06,3.36530813172618e-05
0.2845,7.9979803396873e-06,3.36313104848619e-05
0.285,7.99205736798621e-06,3.36096044766757e-05
0.2855,7.98601923277115e-06,3.35879637013249e-05
0.286,7.979866177983e-06,3.35663885788803e-05
0.2865,7.9735984717907e-06,3.35448795407024e-05
0.287,7.96721640658076e-06,3.35234370292814e-05
0.2875,7.96072029894199e-06,3.35020614980764e-05
0.288,7.9541104896451e-06,3.34807534113541e-05
0.2885,7.94738734361782e-06,3.34595132440261e-05
0.289,7.94055124991468e-06,3.34383414814856e-05
0.2895,7.93360262168226e-06,3.34172386194435e-05
0.29,7.92654189611932e-06,3.33962051637632e-05
0.2905,7.91936953443207e-06,3.33752416302943e-05
0.291,7.91208602178456e-06,3.33543485447065e-05
0.2915,7.90469186724407e-06,3.33335264423211e-05
0.292,7.8971876037216e-06,3.33127758679426e-05
0.2925,7.88957378790747e-06,3.32920973756888e-05
0.293,7.88185100020181e-06,3.32714915288206e-05
0.2935,7.87401984464034e-06,3.32509588995701e-05
0.294,7.86608094881497e-06,3.32305000689682e-05
0.2945,7.85803496378959e-06,3.32101156266715e-05
0.295,7.84988256401083e-06,3.31898061707876e-05
0.2955,7.84162444721377e-06,3.31695723076997e-05
0.296,7.83326133432295e-06,3.31494146518913e-05
0.2965,7.82479396934804e-06,3.3129333825768e-05
0.297,7.81622311927488e-06,3.31093304594805e-05
0.2975,7.80754957395123e-06,3.30894051907454e-05
0.298,7.79877414596775e-06,3.30695586646651e-05
0.2985,7.78989767053383e-06,3.3049791533548e-05
0.299,7.7809210053486e-06,3.30301044567264e-05
0.2995,7.77184503046673e-06,3.30104981003744e-05
0.3,7.76267064815932e-06,3.29909731373252e-05
0.3005,7.75339878276977e-06,3.29715302468863e-05
0.301,7.74403038056464e-06,3.29521701146556e-05
0.3015,7.73456640957941e-06,3.29328934323351e-05
0.302,7.72500785945915e-06,3.29137008975452e-05
0.3025,7.71535574129441e-06,3.28945932136368e-05
0.303,7.70561108745166e-06,3.2875571089504e-05
0.3035,7.69577495139913e-06,3.28566352393957e-05
0.304,7.68584840752714e-06,3.28377863827252e-05
0.3045,7.6758325509637e-06,3.28190252438815e-05
0.305,7.66572849738498e-06,3.28003525520376e-05
0.3055,7.65553738282064e-06,3.27817690409597e-05
0.306,7.6452603634542e-06,3.27632754488154e-05
0.3065,7.63489861541834e-06,3.27448725179807e-05
0.307,7.62445333458525e-06,3.27265609948474e-05
0.3075,7.61392573635177e-06,3.27083416296294e-05
0.308,7.60331705541977e-06,3.26902151761685e-05
0.3085,7.59262854557132e-06,3.26721823917401e-05
0.309,7.58186147943909e-06,3.26542440368579e-05
0.3095,7.57101714827161e-06,3.26364008750789e-05
0.31,7.56009686169373e-06,3.26186536728072e-05
0.3105,7.5491019474621e-06,3.26010031990981e-05
0.311,7.53803375121579e-06,3.25834502254617e-05
0.3115,7.52689363622209e-06,3.25659955256661e-05
0.312,7.51568298311743e-06,3.25486398755405e-05
0.3125,7.50440318964353e-06,3.25313840527782e-05
0.313,7.49305567037881e-06,3.2514228836739e-05
0.3135,7.48164185646507e-06,3.24971750082519e-05
0.314,7.47016319532946e-06,3.24802233494182e-05
0.3145,7.45862115040194e-06,3.24633746434129e-05
0.315,7.44701720082793e-06,3.24466296742884e-05
0.3155,7.43535284117663e-06,3.24299892267762e-05
0.316,7.42362958114472e-06,3.24134540860899e-05
0.3165,7.41184894525558e-06,3.23970250377278e-05
0.317,7.40001247255433e-06,3.23807028672763e-05
0.3175,7.38812171629825e-06,3.23644883602123e-05
0.318,7.3761782436431e-06,3.23483823017071e-05
0.3185,7.36418363532524e-06,3.23323854764298e-05
0.319,7.35213948533943e-06,3.23164986683511e-05
0.3195,7.34004740061272e-06,3.23007226605478e-05
0.32,7.3279090006742e-06,3.2285058235007e-05
0.3205,7.31572591732086e-06,3.22695061724315e-05
0.321,7.30349979427951e-06,3.22540672520448e-05
0.3215,7.29123228686489e-06,3.22387422513973e-05
0.322,7.27892506163413e-06,3.22235319461717e-05
0.3225,7.2665797960374e-06,3.22084371099918e-05
0.323,7.25419817806517e-06,3.21934585142276e-05
0.3235,7.24178190589174e-06,3.21785969278051e-05
0.324,7.2293326875156e-06,3.21638531170141e-05
0.3245,7.2168522403963e-06,3.21492278453183e-05
0.325,7.20434229108815e-06,3.21347218731642e-05
0.3255,7.19180457487074e-06,3.21203359577933e-05
0.326,7.17924083537644e-06,3.21060708530524e-05
0.3265,7.16665282421492e-06,3.20919273092072e-05
0.327,7.15404230059481e-06,3.20779060727542e-05
0.3275,7.14141103094262e-06,3.20640078862356e-05
0.328,7.12876078851888e-06,3.20502334880539e-05
0.3285,7.11609335303192e-06,3.20365836122875e-05
0.329,7.103410510249e-06,3.20230589885071e-05
0.3295,7.09071405160512e-06,3.20096603415936e-05
0.33,7.07800577380972e-06,3.19963883915559e-05
0.3305,7.06528747845096e-06,3.19832438533502e-05
0.331,7.05256097159822e-06,3.19702274367e-05
0.3315,7.03982806340254e-06,3.19573398459171e-05
0.332,7.02709056769518e-06,3.1944581779723e-05
0.3325,7.01435030158463e-06,3.19319539310713e-05
0.333,7.00160908505186e-06,3.19194569869714e-05
0.3335,6.98886874054412e-06,3.19070916283123e-05
0.334,6.9761310925674e-06,3.18948585296871e-05
0.3345,6.96339796727753e-06,3.1882758359219e-05
0.335,6.95067119207023e-06,3.18707917783873e-05
0.3355,6.93795259517e-06,3.1858959441854e-05
0.336,6.9252440052181e-06,3.18472619972916e-05
0.3365,6.91254725085975e-06,3.18357000852107e-05
0.337,6.89986416033063e-06,3.18242743387889e-05
0.3375,6.88719656104266e-06,3.18129853836995e-05
0.338,6.87454627916941e-06,3.18018338379412e-05
0.3385,6.86191513923112e-06,3.17908203116679e-05
0.339,6.8493049636794e-06,3.17799454070187e-05
0.3395,6.83671757248187e-06,3.17692097179485e-05
0.34,6.82415478270669e-06,3.17586138300587e-05
0.3405,6.81161840810721e-06,3.17481583204282e-05
0.341,6.79911025870682e-06,3.17378437574446e-05
0.3415,6.78663214038409e-06,3.17276707006347e-05
0.342,6.77418585445841e-06,3.17176397004963e-05
0.3425,6.76177319727597e-06,3.17077512983291e-05
0.343,6.74939595979667e-06,3.1698006026065e-05
0.3435,6.73705592718158e-06,3.16884044060999e-05
0.344,6.7247548783813e-06,3.16789469511234e-05
0.3445,6.71249458572548e-06,3.1669634163949e-05
0.345,6.70027681451321e-06,3.1660466537344e-05
0.3455,6.68810332260483e-06,3.16514445538587e-05
0.346,6.67597586001482e-06,3.16425686856548e-05
0.3465,6.66389616850651e-06,3.16338393943335e-05
0.347,6.65186598118784e-06,3.16252571307624e-05
0.3475,6.63988702210923e-06,3.16168223349026e-05
0.348,6.62796100586297e-06,3.16085354356338e-05
0.3485,6.6160896371845e-06,3.16003968505785e-05
0.349,6.60427461055574e-06,3.15924069859266e-05
0.3495,6.59251760981048e-06,3.15845662362566e-05
0.35,6.58082030774199e-06,3.15768749843576e-05
0.3505,6.56918436571286e-06,3.15693336010493e-05
0.351,6.55761143326733e-06,3.15619424449999e-05
0.3515,6.54610314774604e-06,3.15547018625446e-05
0.352,6.53466113390351e-06,3.15476121875003e-05
0.3525,6.52328700352816e-06,3.15406737409804e-05
0.353,6.5119823550653e-06,3.15338868312076e-05
0.3535,6.50074877324295e-06,3.15272517533249e-05
0.354,6.4895878287006e-06,3.15207687892049e-05
0.3545,6.47850107762124e-06,3.15144382072578e-05
0.355,6.46749006136635e-06,3.15082602622372e-05
0.3555,6.45655630611441e-06,3.15022351950438e-05
0.356,6.44570132250263e-06,3.14963632325287e-05
0.3565,6.43492660527224e-06,3.14906445872926e-05
0.357,6.42423363291731e-06,3.1485079457485e-05
0.3575,6.41362386733721e-06,3.14796680266002e-05
0.358,6.40309875349289e-06,3.14744104632721e-05
0.3585,6.39265971906699e-06,3.14693069210664e-05
0.359,6.38230817412779e-06,3.1464357538271e-05
0.3595,6.37204551079731e-06,3.14595624376843e-05
0.36,6.36187310292342e-06,3.14549217264014e-05
0.3605,6.35179230575622e-06,3.14504354955983e-05
0.361,6.34180445562872e-06,3.14461038203137e-05
0.3615,6.33191086964171e-06,3.1441926759229e-05
0.362,6.32211284535345e-06,3.14379043544464e-05
0.3625,6.31241166047354e-06,3.14340366312637e-05
0.363,6.30280857256171e-06,3.14303235979493e-05
0.3635,6.29330481873121e-06,3.14267652455126e-05
0.364,6.28390161535699e-06,3.14233615474743e-05
0.3645,6.27460015778892e-06,3.14201124596336e-05
0.365,6.26540162006983e-06,3.14170179198343e-05
0.3655,6.25630715465877e-06,3.14140778477284e-05
0.366,6.24731789215939e-06,3.14112921445379e-05
0.3665,6.23843494105346e-06,3.14086606928153e-05
0.367,6.22965938743986e-06,3.1406183356202e-05
0.3675,6.2209922947789e-06,3.14038599791854e-05
0.368,6.21243470364218e-06,3.14016903868536e-05
0.3685,6.2039876314679e-06,3.13996743846501e-05
0.369,6.195652072322e-06,3.13978117581255e-05
0.3695,6.18742899666485e-06,3.13961022726891e-05
0.37,6.17931935112388e-06,3.13945456733586e-05
0.3705,6.17132405827201e-06,3.13931416845092e-05
0.371,6.16344401641207e-06,3.13918900096214e-05
0.3715,6.15568009936727e-06,3.13907903310275e-05
0.372,6.14803315627773e-06,3.13898423096585e-05
0.3725,6.14050401140324e-06,3.13890455847891e-05
0.373,6.13309346393225e-06,3.13883997737828e-05
0.3735,6.12580228779715e-06,3.13879044718364e-05
0.374,6.11863123149601e-06,3.1387559251724e-05
0.3745,6.11158101792074e-06,3.13873636635414e-05
0.375,6.1046523441917e-06,3.13873172344499e-05
0.3755,6.09784588149906e-06,3.13874194684197e-05
0.376,6.09116227495062e-06,3.1387669845975e-05
0.3765,6.08460214342643e-06,3.13880678239383e-05
0.377,6.07816607944019e-06,3.1388612835175e-05
0.3775,6.07185464900738e-06,3.13893042883393e-05
0.378,6.06566839152026e-06,3.1390141567621e-05
0.3785,6.0596078196299e-06,3.13911240324923e-05
0.379,6.05367341913493e-06,3.13922510174566e-05
0.3795,6.04786564887755e-06,3.13935218317982e-05
0.38,6.04218494064632e-06,3.13949357593329e-05
0.3805,6.03663169908625e-06,3.13964920581612e-05
0.381,6.03120630161576e-06,3.13981899604221e-05
0.3815,6.02590909835097e-06,3.14000286720497e-05
0.382,6.02074041203702e-06,3.14020073725312e-05
0.3825,6.0157005379866e-06,3.14041252146673e-05
0.383,6.01078974402566e-06,3.14063813243353e-05
0.3835,6.0060082704464e-06,3.1408774800254e-05
0.384,6.00135632996741e-06,3.14113047137524e-05
0.3845,5.99683410770104e-06,3.14139701085396e-05
0.385,5.99244176112805e-06,3.14167700004807e-05
0.3855,5.9881794200795e-06,3.14197033773721e-05
0.386,5.98404718672582e-06,3.14227691987238e-05
0.3865,5.9800451355732e-06,3.14259663955431e-05
0.387,5.97617331346713e-06,3.14292938701231e-05
0.3875,5.97243173960323e-06,3.14327504958349e-05
0.388,5.96882040554524e-06,3.14363351169244e-05
0.3885,5.96533927525022e-06,3.14400465483131e-05
0.389,5.96198828510094e-06,3.14438835754034e-05
0.3895,5.95876734394535e-06,3.14478449538893e-05
0.39,5.95567633314331e-06,3.14519294095718e-05
0.3905,5.95271510662027e-06,3.14561356381791e-05
0.391,5.94988349092815e-06,3.14604623051927e-05
0.3915,5.94718128531318e-06,3.14649080456789e-05
0.392,5.94460826179081e-06,3.1469471464126e-05
0.3925,5.94216416522742e-06,3.14741511342876e-05
0.393,5.93984871342927e-06,3.14789455990319e-05
0.3935,5.937661597238e-06,3.14838533701971e-05
0.394,5.93560248063319e-06,3.14888729284542e-05
0.3945,5.93367100084167e-06,3.14940027231757e-05
0.395,5.93186676845346e-06,3.14992411723115e-05
0.3955,5.93018936754461e-06,3.15045866622721e-05
0.396,5.92863835580648e-06,3.15100375478191e-05
0.3965,5.9272132646818e-06,3.15155921519633e-05
0.397,5.9259135995071e-06,3.15212487658708e-05
0.3975,5.92473883966172e-06,3.15270056487765e-05
0.398,5.92368843872327e-06,3.15328610279067e-05
0.3985,5.92276182462935e-06,3.15388130984093e-05
0.399,5.92195839984573e-06,3.15448600232938e-05
0.3995,5.92127754154063e-06,3.15509999333787e-05
0.4,5.92071860176529e-06,3.15572309272495e-05
0.4005,5.92028090764068e-06,3.15635510712252e-05
0.401,5.91996376155012e-06,3.15699583993345e-05
0.4015,5.9197664413381e-06,3.15764509133021e-05
0.402,5.91968820051486e-06,3.15830265825446e-05
0.4025,5.91972826846692e-06,3.15896833441767e-05
0.403,5.91988585067329e-06,3.1596419103028e-05
0.4035,5.92016012892753e-06,3.16032317316708e-05
0.404,5.92055026156528e-06,3.16101190704574e-05
0.4045,5.92105538369748e-06,3.16170789275702e-05
0.405,5.92167460744895e-06,3.16241090790815e-05
0.4055,5.92240702220255e-06,3.16312072690255e-05
0.406,5.92325169484838e-06,3.16383712094818e-05
0.4065,5.92420767003849e-06,3.16455985806705e-05
0.407,5.92527397044658e-06,3.16528870310593e-05
0.4075,5.92644959703285e-06,3.16602341774821e-05
0.408,5.92773352931379e-06,3.16676376052709e-05
0.4085,5.92912472563694e-06,3.16750948683991e-05
0.409,5.93062212346036e-06,3.16826034896379e-05
0.4095,5.93222463963699e-06,3.16901609607248e-05
0.41,5.93393117070354e-06,3.16977647425456e-05
0.4105,5.93574059317396e-06,3.17054122653281e-05
0.411,5.93765176383745e-06,3.17131009288507e-05
0.4115,5.93966352006079e-06,3.17208281026618e-05
0.412,5.94177468009499e-06,3.17285911263144e-05
0.4125,5.94398404338619e-06,3.17363873096131e-05
0.413,5.94629039089061e-06,3.17442139328743e-05
0.4135,5.9486924853936e-06,3.17520682472004e-05
0.414,5.95118907183254e-06,3.17599474747673e-05
0.4145,5.95377887762377e-06,3.17678488091252e-05
0.415,5.95646061299305e-06,3.17757694155134e-05
0.4155,5.95923297130987e-06,3.17837064311881e-05
0.416,5.96209462942527e-06,3.1791656965765e-05
0.4165,5.96504424801317e-06,3.17996181015732e-05
0.417,5.968080471915e-06,3.18075868940253e-05
0.4175,5.97120193048786e-06,3.18155603719988e-05
0.418,5.97440723795561e-06,3.18235355382324e-05
0.4185,5.97769499376332e-06,3.18315093697343e-05
0.419,5.98106378293456e-06,3.18394788182055e-05
0.4195,5.98451217643178e-06,3.18474408104741e-05
0.42,5.98803873151934e-06,3.18553922489445e-05
0.4205,5.99164199212948e-06,3.18633300120584e-05
0.421,5.99532048923076e-06,3.18712509547694e-05
0.4215,5.99907274119908e-06,3.18791519090288e-05
0.422,6.00289725419122e-06,3.18870296842858e-05
0.4225,6.00679252252062e-06,3.18948810679984e-05
0.423,6.01075702903543e-06,3.1902702826157e-05
0.4235,6.01478924549864e-06,3.19104917038202e-05
0.424,6.01888763297036e-06,3.19182444256615e-05
0.4245,6.02305064219185e-06,3.19259576965283e-05
0.425,6.02727671397151e-06,3.19336282020112e-05
0.4255,6.03156427957244e-06,3.1941252609026e-05
0.426,6.03591176110169e-06,3.19488275664043e-05
0.4265,6.04031757190094e-06,3.19563497054965e-05
0.427,6.04478011693854e-06,3.19638156407836e-05
0.4275,6.04929779320284e-06,3.19712219705006e-05
0.428,6.05386899009663e-06,3.19785652772681e-05
0.4285,6.05849208983256e-06,3.19858421287345e-05
0.429,6.06316546782965e-06,3.19930490782269e-05
0.4295,6.06788749311034e-06,3.20001826654109e-05
0.43,6.07265652869846e-06,3.20072394169594e-05
0.4305,6.07747093201763e-06,3.20142158472294e-05
0.431,6.08232905529019e-06,3.2021108458947e-05
0.4315,6.08722924593647e-06,3.20279137439005e-05
0.432,6.09216984697429e-06,3.20346281836406e-05
0.4325,6.09714919741851e-06,3.2041248250188e-05
0.433,6.10216563268082e-06,3.20477704067481e-05
0.4335,6.10721748496912e-06,3.20541911084319e-05
0.434,6.11230308368699e-06,3.20605068029839e-05
0.4345,6.11742075583272e-06,3.2066713931516e-05
0.435,6.12256882639786e-06,3.20728089292461e-05
0.4355,6.12774561876546e-06,3.20787882262442e-05
0.436,6.13294945510745e-06,3.20846482481818e-05
0.4365,6.13817865678153e-06,3.20903854170874e-05
0.437,6.14343154472703e-06,3.20959961521062e-05
0.4375,6.14870643986001e-06,3.21014768702642e-05
0.438,6.15400166346725e-06,3.21068239872365e-05
0.4385,6.15931553759915e-06,3.21120339181189e-05
0.439,6.16464638546141e-06,3.21171030782037e-05
0.4395,6.16999253180543e-06,3.21220278837581e-05
0.44,6.17535230331723e-06,3.21268047528055e-05
0.4405,6.18072402900498e-06,3.21314301059098e-05
0.441,6.18610604058485e-06,3.21359003669616e-05
0.4415,6.19149667286525e-06,3.21402119639668e-05
0.442,6.19689426412922e-06,3.21443613298363e-05
0.4425,6.20229715651513e-06,3.21483449031784e-05
0.443,6.20770369639524e-06,3.21521591290905e-05
0.4435,6.21311223475233e-06,3.21558004599539e-05
0.444,6.21852112755434e-06,3.21592653562275e-05
0.4445,6.22392873612658e-06,3.21625502872427e-05
0.445,6.2293334275219e-06,3.21656517319983e-05
0.4455,6.23473357488839e-06,3.21685661799554e-05
0.446,6.24012755783472e-06,3.2171290131831e-05
0.4465,6.24551376279292e-06,3.21738201003924e-05
0.447,6.25089058337863e-06,3.21761526112497e-05
0.4475,6.25625642074876e-06,3.21782842036471e-05
0.448,6.26160968395626e-06,3.2180211431253e-05
0.4485,6.26694879030236e-06,3.21819308629489e-05
0.449,6.27227216568569e-06,3.21834390836154e-05
0.4495,6.27757824494866e-06,3.21847326949172e-05
0.45,6.28286547222077e-06,3.21858083160844e-05
0.4505,6.28813230125886e-06,3.21866625846925e-05
0.451,6.29337719578432e-06,3.21872921574391e-05
0.4515,6.29859862981701e-06,3.21876937109169e-05
0.452,6.30379508800596e-06,3.21878639423845e-05
0.4525,6.30896506595686e-06,3.21877995705335e-05
0.453,6.31410707055605e-06,3.21874973362507e-05
0.4535,6.31921962029123e-06,3.2186954003379e-05
0.454,6.32430124556851e-06,3.21861663594714e-05
0.4545,6.32935048902614e-06,3.21851312165427e-05
0.455,6.33436590584449e-06,3.21838454118166e-05
0.4555,6.33934606405247e-06,3.21823058084672e-05
0.456,6.34428954483021e-06,3.21805092963568e-05
0.4565,6.34919494280807e-06,3.21784527927686e-05
0.457,6.35406086636173e-06,3.2176133243134e-05
0.4575,6.3588859379036e-06,3.21735476217554e-05
0.458,6.36366879417021e-06,3.21706929325227e-05
0.4585,6.36840808650568e-06,3.21675662096254e-05
0.459,6.37310248114124e-06,3.21641645182588e-05
0.4595,6.37775065947073e-06,3.21604849553238e-05
0.46,6.38235131832191e-06,3.21565246501217e-05
0.4605,6.38690317022377e-06,3.21522807650433e-05
0.461,6.39140494366963e-06,3.2147750496251e-05
0.4615,6.39585538337594e-06,3.21429310743552e-05
0.462,6.40025325053697e-06,3.21378197650851e-05
0.4625,6.40459732307506e-06,3.21324138699523e-05
0.463,6.40888639588661e-06,3.21267107269083e-05
0.4635,6.41311928108363e-06,3.21207077109956e-05
0.464,6.41729480823097e-06,3.21144022349924e-05
0.4645,6.42141182457891e-06,3.21077917500504e-05
0.465,6.42546919529142e-06,3.21008737463256e-05
0.4655,6.42946580366976e-06,3.20936457536032e-05
0.466,6.43340055137156e-06,3.2086105341915e-05
0.4665,6.43727235862531e-06,3.20782501221499e-05
0.467,6.44108016444008e-06,3.20700777466577e-05
0.4675,6.44482292681067e-06,3.20615859098464e-05
0.468,6.44849962291801e-06,3.20527723487711e-05
0.4685,6.45210924932476e-06,3.20436348437173e-05
0.469,6.45565082216616e-06,3.20341712187762e-05
0.4695,6.45912337733604e-06,3.20243793424131e-05
0.47,6.46252597066795e-06,3.20142571280286e-05
0.4705,6.46585767811148e-06,3.20038025345128e-05
0.471,6.46911759590354e-06,3.19930135667916e-05
0.4715,6.47230484073472e-06,3.19818882763671e-05
0.472,6.47541854991081e-06,3.19704247618486e-05
0.4725,6.47845788150904e-06,3.19586211694783e-05
0.473,6.4814220145295e-06,3.19464756936486e-05
0.4735,6.48431014904134e-06,3.19339865774125e-05
0.474,6.48712150632399e-06,3.1921152112986e-05
0.4745,6.48985532900306e-06,3.19079706422442e-05
0.475,6.49251088118122e-06,3.18944405572091e-05
0.4755,6.49508744856387e-06,3.18805603005297e-05
0.476,6.49758433857944e-06,3.18663283659568e-05
0.4765,6.50000088049457e-06,3.18517432988071e-05
0.477,6.50233642552395e-06,3.18368036964229e-05
0.4775,6.5045903469348e-06,3.18215082086224e-05
0.478,6.50676204014602e-06,3.18058555381433e-05
0.4785,6.50885092282201e-06,3.17898444410788e-05
0.479,6.510856434961e-06,3.17734737273059e-05
0.4795,6.51277803897798e-06,3.1756742260906e-05
0.48,6.51461521978215e-06,3.17396489605784e-05
0.4805,6.51636748484896e-06,3.17221928000458e-05
0.481,6.51803436428651e-06,3.17043728084515e-05
0.4815,6.51961541089651e-06,3.16861880707501e-05
0.482,6.5211102002296e-06,3.16676377280897e-05
0.4825,6.52251833063517e-06,3.16487209781856e-05
0.483,6.5238394233055e-06,3.16294370756876e-05
0.4835,6.52507312231435e-06,3.1609785332538e-05
0.484,6.52621909464978e-06,3.15897651183224e-05
0.4845,6.52727703024141e-06,3.1569375860612e-05
0.485,6.52824664198198e-06,3.15486170452981e-05
0.4855,6.52912766574312e-06,3.15274882169181e-05
0.486,6.52991986038556e-06,3.15059889789737e-05
0.4865,6.53062300776343e-06,3.148411899424e-05
0.487,6.53123691272288e-06,3.14618779850678e-05
0.4875,6.53176140309504e-06,3.14392657336757e-05
0.488,6.53219632968298e-06,3.14162820824347e-05
0.4885,6.53254156624309e-06,3.13929269341445e-05
0.489,6.53279700946055e-06,3.13692002523001e-05
0.4895,6.53296257891901e-06,3.13451020613513e-05
0.49,6.53303821706445e-06,3.13206324469515e-05
0.4905,6.53302388916326e-06,3.12957915561996e-05
0.491,6.53291958325443e-06,3.1270579597871e-05
0.4915,6.53272531009592e-06,3.12449968426417e-05
0.492,6.5324411031052e-06,3.12190436233012e-05
0.4925,6.53206701829401e-06,3.11927203349576e-05
0.493,6.53160313419721e-06,3.11660274352325e-05
0.4935,6.53104955179583e-06,3.11389654444474e-05
0.494,6.53040639443436e-06,3.11115349457993e-05
0.4945,6.52967380773207e-06,3.10837365855281e-05
0.495,6.52885195948884e-06,3.10555710730729e-05
0.4955,6.5279410395848e-06,3.10270391812193e-05
0.496,6.52694125987459e-06,3.09981417462367e-05
0.4965,6.52585285407566e-06,3.09688796680053e-05
0.497,6.52467607765084e-06,3.09392539101327e-05
0.4975,6.52341120768538e-06,3.09092655000608e-05
0.498,6.52205854275809e-06,3.08789155291622e-05
0.4985,6.52061840280712e-06,3.08482051528254e-05
0.499,6.51909112898979e-06,3.08171355905304e-05
0.4995,6.51747708353721e-06,3.07857081259128e-05
0.5,6.51577664960303e-06,3.07539241068175e-05
0.5005,6.51399023110698e-06,3.0721784945341e-05
0.501,6.51211825257275e-06,3.06892921178632e-05
0.5015,6.51016115896052e-06,3.06564471650674e-05
0.502,6.50811941549427e-06,3.06232516919489e-05
0.5025,6.50599350748349e-06,3.05897073678131e-05
0.503,6.50378394013988e-06,3.05558159262606e-05
0.5035,6.50149123838877e-06,3.05215791651619e-05
0.504,6.49911594667532e-06,3.04869989466187e-05
0.5045,6.49665862876571e-06,3.04520771969154e-05
0.505,6.4941198675433e-06,3.04168159064561e-05
0.5055,6.49150026479973e-06,3.03812171296911e-05
0.506,6.48880044102123e-06,3.03452829850303e-05
0.5065,6.48602103517004e-06,3.03090156547446e-05
0.507,6.4831627044611e-06,3.02724173848537e-05
0.5075,6.48022612413391e-06,3.02354904850028e-05
0.508,6.47721198722002e-06,3.01982373283254e-05
0.5085,6.47412100430572e-06,3.01606603512931e-05
0.509,6.47095390329043e-06,3.01227620535533e-05
0.5095,6.46771142914055e-06,3.00845449977527e-05
0.51,6.46439434363923e-06,3.00460118093484e-05
0.5105,6.46100342513158e-06,3.00071651764057e-05
0.511,6.45753946826608e-06,2.99680078493815e-05
0.5115,6.45400328373166e-06,2.99285426408952e-05
0.512,6.450395697991e-06,2.98887724254862e-05
0.5125,6.44671755300981e-06,2.9848700139356e-05
0.513,6.44296970598243e-06,2.98083287800986e-05
0.5135,6.43915302905361e-06,2.97676614064161e-05
0.514,6.43526840903687e-06,2.97267011378199e-05
0.5145,6.4313167471291e-06,2.96854511543186e-05
0.515,6.42729895862201e-06,2.96439146960921e-05
0.5155,6.42321597261013e-06,2.96020950631498e-05
0.516,6.41906873169552e-06,2.95599956149775e-05
0.5165,6.41485819168961e-06,2.95176197701668e-05
0.517,6.41058532131181e-06,2.94749710060333e-05
0.5175,6.40625110188525e-06,2.94320528582177e-05
0.518,6.4018565270299e-06,2.93888689202747e-05
0.5185,6.39740260235272e-06,2.93454228432462e-05
0.519,6.39289034513548e-06,2.93017183352209e-05
0.5195,6.3883207840199e-06,2.92577591608786e-05
0.52,6.38369495869053e-06,2.92135491410209e-05
0.5205,6.37901391955533e-06,2.91690921520871e-05
0.521,6.37427872742408e-06,2.91243921256556e-05
0.5215,6.36949045318479e-06,2.90794530479308e-05
0.522,6.36465017747809e-06,2.90342789592157e-05
0.5225,6.35975899036983e-06,2.89888739533702e-05
0.523,6.35481799102201e-06,2.89432421772548e-05
0.5235,6.34982828736199e-06,2.88973878301595e-05
0.524,6.34479099575026e-06,2.88513151632194e-05
0.5245,6.33970724064682e-06,2.88050284788151e-05
0.525,6.33457815427629e-06,2.8758532129959e-05
0.5255,6.32940487629177e-06,2.87118305196678e-05
0.526,6.32418855343773e-06,2.86649281003202e-05
0.5265,6.31893033921197e-06,2.86178293730014e-05
0.527,6.31363139352661e-06,2.85705388868325e-05
0.5275,6.30829288236853e-06,2.85230612382873e-05
0.528,6.30291597745902e-06,2.84754010704937e-05
0.5285,6.29750185591316e-06,2.84275630725233e-05
0.529,6.29205169989857e-06,2.83795519786656e-05
0.5295,6.28656669629405e-06,2.833137256769e-05
0.53,6.28104803634798e-06,2.82830296620936e-05
0.5305,6.27549691533673e-06,2.82345281273367e-05
0.531,6.26991453222303e-06,2.81858728710641e-05
0.5315,6.2643020893146e-06,2.81370688423148e-05
0.532,6.258660791923e-06,2.80881210307175e-05
0.5325,6.25299184802286e-06,2.8039034465675e-05
0.533,6.24729646791167e-06,2.7989814215535e-05
0.5335,6.24157586387005e-06,2.79404653867495e-05
0.534,6.23583124982279e-06,2.78909931230215e-05
0.5345,6.23006384100073e-06,2.78414026044404e-05
0.535,6.22427485360354e-06,2.77916990466054e-05
0.5355,6.21846550446339e-06,2.7741887699738e-05
0.536,6.21263701070995e-06,2.76919738477825e-05
0.5365,6.20679058943649e-06,2.76419628074962e-05
0.537,6.20092745736729e-06,2.75918599275287e-05
0.5375,6.19504883052659e-06,2.75416705874902e-05
0.538,6.18915592390895e-06,2.74914001970109e-05
0.5385,6.1832499511513e-06,2.74410541947883e-05
0.539,6.17733212420672e-06,2.73906380476268e-05
0.5395,6.17140365302002e-06,2.73401572494667e-05
0.54,6.16546574520522e-06,2.72896173204041e-05
0.5405,6.15951960572514e-06,2.72390238057024e-05
0.541,6.15356643657291e-06,2.71883822747943e-05
0.5415,6.14760743645593e-06,2.7137698320276e-05
0.542,6.14164380048187e-06,2.70869775568934e-05
0.5425,6.1356767198472e-06,2.70362256205201e-05
0.543,6.12970738152811e-06,2.69854481671278e-05
0.5435,6.12373696797406e-06,2.693465087175e-05
0.544,6.11776665680385e-06,2.68838394274383e-05
0.5445,6.11179762050449e-06,2.6833019544212e-05
0.545,6.10583102613283e-06,2.67821969480016e-05
0.5455,6.09986803502003e-06,2.67313773795861e-05
0.546,6.09390980247914e-06,2.66805665935246e-05
0.5465,6.08795747751544e-06,2.66297703570819e-05
0.547,6.08201220254016e-06,2.65789944491498e-05
0.5475,6.07607511308718e-06,2.65282446591624e-05
0.548,6.07014733753312e-06,2.64775267860083e-05
0.5485,6.06422999682061e-06,2.64268466369363e-05
0.549,6.05832420418512e-06,2.63762100264594e-05
0.5495,6.05243106488509e-06,2.63256227752536e-05
0.55,6.04655167593572e-06,2.62750907090535e-05
0.5505,6.04068712584632e-06,2.62246196575451e-05
0.551,6.03483849436121e-06,2.61742154532554e-05
0.5515,6.02900685220463e-06,2.61238839304398e-05
0.552,6.02319326082913e-06,2.60736309239669e-05
0.5525,6.01739877216804e-06,2.60234622682014e-05
0.553,6.0116244283918e-06,2.59733837958849e-05
0.5535,6.00587126166822e-06,2.59234013370162e-05
0.554,6.00014029392692e-06,2.58735207177295e-05
0.5545,5.9944325366277e-06,2.58237477591722e-05
0.555,5.9887489905332e-06,2.57740882763816e-05
0.5555,5.98309064548573e-06,2.57245480771619e-05
0.556,5.97745848018841e-06,2.56751329609606e-05
0.5565,5.97185346199055e-06,2.56258487177454e-05
0.557,5.96627654667745e-06,2.55767011268813e-05
0.5575,5.96072867826466e-06,2.55276959560082e-05
0.558,5.95521078879665e-06,2.54788389599205e-05
0.5585,5.94972379814999e-06,2.54301358794468e-05
0.559,5.94426861384122e-06,2.53815924403313e-05
0.5595,5.93884613083913e-06,2.53332143521177e-05
0.56,5.93345723138185e-06,2.52850073070343e-05
0.5605,5.92810278479862e-06,2.52369769788817e-05
0.561,5.92278364733614e-06,2.51891290219231e-05
0.5615,5.91750066198996e-06,2.51414690697767e-05
0.562,5.91225465834041e-06,2.50940027343122e-05
0.5625,5.90704645239359e-06,2.50467356045495e-05
0.563,5.90187684642712e-06,2.4999673245561e-05
0.5635,5.89674662884086e-06,2.49528211973783e-05
0.564,5.89165657401258e-06,2.49061849739016e-05
0.5645,5.88660744215863e-06,2.48597700618146e-05
0.565,5.88159997919958e-06,2.48135819195021e-05
0.5655,5.87663491663103e-06,2.47676259759735e-05
0.566,5.87171297139934e-06,2.47219076297906e-05
0.5665,5.86683484578259e-06,2.46764322480001e-05
0.567,5.86200122727669e-06,2.46312051650714e-05
0.5675,5.8572127884865e-06,2.45862316818404e-05
0.568,5.85247018702241e-06,2.45415170644576e-05
0.5685,5.84777406540183e-06,2.44970665433436e-05
0.569,5.8431250509562e-06,2.44528853121493e-05
0.5695,5.8385237557431e-06,2.44089785267229e-05
0.57,5.83397077646369e-06,2.43653513040836e-05
0.5705,5.82946669438548e-06,2.43220087214008e-05
0.571,5.82501207527048e-06,2.42789558149817e-05
0.5715,5.82060746930861e-06,2.42361975792641e-05
0.572,5.81625341105652e-06,2.41937389658179e-05
0.5725,5.81195041938188e-06,2.41515848823528e-05
0.573,5.80769899741299e-06,2.4109740191734e-05
0.5735,5.80349963249382e-06,2.40682097110053e-05
0.574,5.79935279614455e-06,2.40269982104203e-05
0.5745,5.79525894402754e-06,2.39861104124809e-05
0.575,5.79121851591871e-06,2.39455509909841e-05
0.5755,5.78723193568449e-06,2.39053245700775e-05
0.576,5.78329961126418e-06,2.3865435723322e-05
0.5765,5.77942193465785e-06,2.38258889727639e-05
0.577,5.77559928191968e-06,2.3786688788015e-05
0.5775,5.77183201315686e-06,2.37478395853414e-05
0.578,5.768120472534e-06,2.37093457267611e-05
0.5785,5.76446498828296e-06,2.36712115191501e-05
0.579,5.76086587271825e-06,2.36334412133583e-05
0.5795,5.75732342225793e-06,2.35960390033332e-05
0.58,5.75383791744997e-06,2.35590090252535e-05
0.5805,5.75040962300406e-06,2.35223553566722e-05
0.581,5.74703878782904e-06,2.34860820156678e-05
0.5815,5.74372564507557e-06,2.34501929600061e-05
0.582,5.74047041218448e-06,2.3414692086311e-05
0.5825,5.73727329094038e-06,2.33795832292446e-05
0.583,5.73413446753075e-06,2.33448701606973e-05
0.5835,5.73105411261054e-06,2.33105565889875e-05
0.584,5.72803238137192e-06,2.32766461580708e-05
0.5845,5.72506941361967e-06,2.324314244676e-05
0.585,5.72216533385168e-06,2.32100489679534e-05
0.5855,5.71932025134489e-06,2.31773691678747e-05
0.586,5.71653426024654e-06,2.31451064253221e-05
0.5865,5.71380743967056e-06,2.31132640509277e-05
0.587,5.71113985379937e-06,2.30818452864271e-05
0.5875,5.70853155199077e-06,2.30508533039392e-05
0.588,5.70598256889001e-06,2.30202912052569e-05
0.5885,5.70349292454707e-06,2.29901620211471e-05
0.589,5.70106262453906e-06,2.29604687106623e-05
0.5895,5.69869166009754e-06,2.29312141604619e-05
0.59,5.69638000824116e-06,2.29024011841451e-05
0.5905,5.694127631913e-06,2.28740325215933e-05
0.591,5.69193448012311e-06,2.28461108383245e-05
0.5915,5.68980048809578e-06,2.28186387248578e-05
0.592,5.68772557742188e-06,2.27916186960894e-05
0.5925,5.68570965621586e-06,2.27650531906796e-05
0.593,5.68375261927764e-06,2.27389445704507e-05
0.5935,5.68185434825921e-06,2.27132951197969e-05
0.594,5.68001471183592e-06,2.26881070451048e-05
0.5945,5.67823356588239e-06,2.26633824741866e-05
0.595,5.676510753653e-06,2.26391234557236e-05
0.5955,5.67484610596699e-06,2.2615331958723e-05
0.596,5.67323944139792e-06,2.25920098719856e-05
0.5965,5.6716905664676e-06,2.25691590035859e-05
0.597,5.67019927584439e-06,2.25467810803647e-05
0.5975,5.66876535254575e-06,2.25248777474337e-05
0.598,5.66738856814499e-06,2.25034505676928e-05
0.5985,5.66606868298232e-06,2.24825010213602e-05
0.599,5.66480544637982e-06,2.2462030505515e-05
0.5995,5.66359859686048e-06,2.2442040333653e-05
0.6,5.66244786237134e-06,2.2422531735256e-05
0.6005,5.66135296051016e-06,2.24035058553735e-05
0.601,5.66031359875631e-06,2.23849637542188e-05
0.6015,5.65932947470504e-06,2.23669064067783e-05
0.602,5.65840027630559e-06,2.23493347024351e-05
0.6025,5.65752568210272e-06,2.2332249444606e-05
0.603,5.65670536148184e-06,2.2315651350393e-05
0.6035,5.65593897491745e-06,2.229954105025e-05
0.604,5.6552261742249e-06,2.22839190876626e-05
0.6045,5.65456660281538e-06,2.22687859188443e-05
0.605,5.65395989595403e-06,2.22541419124465e-05
0.6055,5.65340568102111e-06,2.22399873492842e-05
0.606,5.65290357777603e-06,2.22263224220778e-05
0.6065,5.65245319862435e-06,2.22131472352089e-05
0.607,5.65205414888743e-06,2.22004618044936e-05
0.6075,5.65170602707484e-06,2.21882660569707e-05
0.608,5.65140842515913e-06,2.21765598307064e-05
0.6085,5.65116092885334e-06,2.21653428746157e-05
0.609,5.65096311789067e-06,2.21546148483e-05
0.6095,5.6508145663064e-06,2.21443753219016e-05
0.61,5.65071484272205e-06,2.21346237759753e-05
0.6105,5.65066351063155e-06,2.21253596013767e-05
0.611,5.65066012868935e-06,2.21165820991689e-05
0.6115,5.65070425100028e-06,2.21082904805451e-05
0.612,5.65079542741126e-06,2.21004838667708e-05
0.6125,5.65093320380454e-06,2.20931612891422e-05
0.613,5.65111712239241e-06,2.20863216889639e-05
0.6135,5.65134672201332e-06,2.20799639175442e-05
0.614,5.65162153842929e-06,2.20740867362094e-05
0.6145,5.65194110462439e-06,2.20686888163359e-05
0.615,5.65230495110435e-06,2.2063768739402e-05
0.6155,5.65271260619697e-06,2.20593249970582e-05
0.616,5.65316359635337e-06,2.20553559912165e-05
0.6165,5.65365744645002e-06,2.20518600341594e-05
0.617,5.65419368009108e-06,2.20488353486683e-05
0.6175,5.65477181991146e-06,2.20462800681713e-05
0.618,5.65539138787997e-06,2.20441922369108e-05
0.6185,5.65605190560278e-06,2.20425698101315e-05
0.619,5.65675289462696e-06,2.20414106542881e-05
0.6195,5.65749387674391e-06,2.20407125472731e-05
0.62,5.65827437429262e-06,2.20404731786656e-05
0.6205,5.65909391046272e-06,2.20406901500003e-05
0.621,5.65995200959705e-06,2.20413609750573e-05
0.6215,5.66084819749359e-06,2.20424830801725e-05
0.622,5.66178200170692e-06,2.20440538045694e-05
0.6225,5.66275295184873e-06,2.20460704007119e-05
0.623,5.66376057988744e-06,2.20485300346781e-05
0.6235,5.66480442044673e-06,2.2051429786556e-05
0.624,5.66588401110299e-06,2.20547666508606e-05
0.6245,5.66699889268133e-06,2.2058537536972e-05
0.625,5.66814860955022e-06,2.20627392695964e-05
0.6255,5.66933270991457e-06,2.20673685892484e-05
0.626,5.67055074610705e-06,2.20724221527552e-05
0.6265,5.67180227487764e-06,2.20778965337832e-05
0.627,5.67308685768123e-06,2.20837882233868e-05
0.6275,5.67440406096308e-06,2.209009363058e-05
0.628,5.67575345644218e-06,2.20968090829293e-05
0.6285,5.67713462139216e-06,2.21039308271703e-05
0.629,5.67854713891987e-06,2.21114550298462e-05
0.6295,5.6799905982413e-06,2.21193777779693e-05
0.63,5.68146459495482e-06,2.21276950797055e-05
0.6305,5.68296873131171e-06,2.21364028650805e-05
0.631,5.68450261648357e-06,2.21454969867105e-05
0.6315,5.68606586682691e-06,2.21549732205541e-05
0.632,5.68765810614439e-06,2.21648272666885e-05
0.6325,5.68927896594287e-06,2.21750547501081e-05
0.633,5.69092808568812e-06,2.21856512215458e-05
0.6335,5.69260511305597e-06,2.21966121583178e-05
0.634,5.69430970417984e-06,2.22079329651913e-05
0.6345,5.69604152389471e-06,2.22196089752751e-05
0.635,5.69780024597712e-06,2.22316354509331e-05
0.6355,5.69958555338136e-06,2.22440075847211e-05
0.636,5.70139713847166e-06,2.22567205003467e-05
0.6365,5.70323470325024e-06,2.22697692536512e-05
0.637,5.70509795958123e-06,2.22831488336154e-05
0.6375,5.70698662941028e-06,2.22968541633877e-05
0.638,5.70890044497977e-06,2.23108801013352e-05
0.6385,5.71083914903966e-06,2.23252214421172e-05
0.639,5.71280249505376e-06,2.23398729177814e-05
0.6395,5.7147902474013e-06,2.23548291988826e-05
0.64,5.71680218157396e-06,2.23700848956238e-05
0.6405,5.71883808436798e-06,2.23856345590193e-05
0.641,5.72089775407153e-06,2.24014726820804e-05
0.6415,5.72298100064702e-06,2.24175937010225e-05
0.642,5.72508764590861e-06,2.24339919964944e-05
0.6425,5.72721752369444e-06,2.24506618948294e-05
0.643,5.72937048003388e-06,2.2467597669317e-05
0.6435,5.73154637330944e-06,2.24847935414972e-05
0.644,5.73374507441362e-06,2.25022436824747e-05
0.6445,5.73596646690022e-06,2.25199422142547e-05
0.645,5.73821044713039e-06,2.25378832110989e-05
0.6455,5.74047692441322e-06,2.25560607009021e-05
0.646,5.74276582114079e-06,2.25744686665889e-05
0.6465,5.74507707291778e-06,2.25931010475296e-05
0.647,5.74741062868533e-06,2.26119517409771e-05
0.6475,5.74976645083947e-06,2.26310146035214e-05
0.648,5.75214451534356e-06,2.26502834525641e-05
0.6485,5.75454481183534e-06,2.26697520678109e-05
0.649,5.75696734372796e-06,2.26894141927825e-05
0.6495,5.75941212830527e-06,2.27092635363438e-05
0.65,5.76187919681133e-06,2.27292937742501e-05
0.6505,5.76436859453394e-06,2.27494985507102e-05
0.651,5.76688038088237e-06,2.27698714799672e-05
0.6515,5.76941462945907e-06,2.27904061478947e-05
0.652,5.77197142812543e-06,2.28110961136094e-05
0.6525,5.7745508790616e-06,2.28319349110988e-05
0.653,5.77715309882036e-06,2.28529160508643e-05
0.6535,5.77977821837486e-06,2.28740330215784e-05
0.654,5.78242638316038e-06,2.28952792917562e-05
0.6545,5.78509775311008e-06,2.29166483114408e-05
0.655,5.78779250268475e-06,2.29381335139005e-05
0.6555,5.79051082089641e-06,2.29597283173405e-05
0.656,5.7932529113259e-06,2.29814261266243e-05
0.6565,5.79601899213449e-06,2.30032203350088e-05
0.657,5.79880929606937e-06,2.30251043258885e-05
0.6575,5.80162407046311e-06,2.30470714745511e-05
0.658,5.80446357722717e-06,2.30691151499427e-05
0.6585,5.80732809283929e-06,2.30912287164417e-05
0.659,5.81021790832496e-06,2.31134055356419e-05
0.6595,5.81313332923292e-06,2.31356389681437e-05
0.66,5.81607467560461e-06,2.31579223753516e-05
0.6605,5.81904228193774e-06,2.31802491212801e-05
0.661,5.82203649714398e-06,2.32026125743644e-05
0.6615,5.8250576845007e-06,2.32250061092774e-05
0.662,5.82810622159688e-06,2.32474231087508e-05
0.6625,5.83118250027313e-06,2.32698569654019e-05
0.663,5.83428692655602e-06,2.32923010835618e-05
0.6635,5.8374199205866e-06,2.33147488811084e-05
0.664,5.84058191654313e-06,2.33371937913008e-05
0.6645,5.84377336255826e-06,2.33596292646151e-05
0.665,5.84699472063044e-06,2.33820487705814e-05
0.6655,5.85024646652981e-06,2.34044457996209e-05
0.666,5.85352908969854e-06,2.34268138648828e-05
0.6665,5.85684309314558e-06,2.34491465040794e-05
0.667,5.86018899333616e-06,2.347143728132e-05
0.6675,5.86356732007558e-06,2.34936797889422e-05
0.668,5.86697861638803e-06,2.35158676493395e-05
0.6685,5.8704234383898e-06,2.35379945167861e-05
0.669,5.87390235515745e-06,2.35600540792559e-05
0.6695,5.87741594859081e-06,2.35820400602373e-05
0.67,5.88096481327081e-06,2.36039462205419e-05
0.6705,5.88454955631224e-06,2.36257663601061e-05
0.671,5.88817079721173e-06,2.36474943197864e-05
0.6715,5.89182916769067e-06,2.36691239831462e-05
0.672,5.89552531153334e-06,2.36906492782346e-05
0.6725,5.89925988442028e-06,2.3712064179355e-05
0.673,5.90303355375709e-06,2.37333627088256e-05
0.6735,5.90684699849846e-06,2.37545389387281e-05
0.674,5.91070090896777e-06,2.37755869926458e-05
0.6745,5.91459598667226e-06,2.379650104739e-05
0.675,5.9185329441137e-06,2.38172753347141e-05
0.6755,5.92251250459499e-06,2.38379041430153e-05
0.676,5.92653540202222e-06,2.38583818190217e-05
0.6765,5.93060238070291e-06,2.38787027694665e-05
0.677,5.93471419513985e-06,2.38988614627468e-05
0.6775,5.93887160982124e-06,2.39188524305678e-05
0.678,5.94307539900673e-06,2.39386702695704e-05
0.6785,5.94732634650963e-06,2.39583096429432e-05
0.679,5.95162524547528e-06,2.39777652820172e-05
0.6795,5.95597289815595e-06,2.39970319878438e-05
0.68,5.96037011568178e-06,2.40161046327534e-05
0.6805,5.96481771782834e-06,2.40349781618972e-05
0.681,5.96931653278066e-06,2.40536475947691e-05
0.6815,5.9738673968938e-06,2.40721080267083e-05
0.682,5.97847115445005e-06,2.40903546303818e-05
0.6825,5.98312865741279e-06,2.41083826572474e-05
0.683,5.98784076517725e-06,2.41261874389939e-05
0.6835,5.99260834431791e-06,2.41437643889622e-05
0.684,5.9974322683329e-06,2.41611090035429e-05
0.6845,6.00231341738537e-06,2.41782168635524e-05
0.685,6.00725267804176e-06,2.41950836355861e-05
0.6855,6.01225094300737e-06,2.42117050733482e-05
0.686,6.01730911085881e-06,2.42280770189592e-05
0.6865,6.02242808577392e-06,2.42441954042376e-05
0.687,6.02760877725877e-06,2.42600562519589e-05
0.6875,6.03285209987221e-06,2.42756556770888e-05
0.688,6.03815897294763e-06,2.42909898879925e-05
0.6885,6.0435303203124e-06,2.43060551876174e-05
0.689,6.0489670700048e-06,2.43208479746509e-05
0.6895,6.05447015398848e-06,2.43353647446516e-05
0.69,6.06004050786486e-06,2.43496020911548e-05
0.6905,6.06567907058309e-06,2.43635567067504e-05
0.691,6.07138678414794e-06,2.43772253841347e-05
0.6915,6.07716459332566e-06,2.4390605017134e-05
0.692,6.08301344534779e-06,2.44036926017016e-05
0.6925,6.08893428961304e-06,2.44164852368864e-05
0.693,6.09492807738729e-06,2.44289801257732e-05
0.6935,6.1009957615019e-06,2.44411745763956e-05
0.694,6.10713829605015e-06,2.44530660026193e-05
0.6945,6.11335663608221e-06,2.44646519249971e-05
0.695,6.11965173729844e-06,2.44759299715948e-05
0.6955,6.12602455574119e-06,2.44868978787881e-05
0.696,6.13247604748525e-06,2.44975534920298e-05
0.6965,6.13900716832687e-06,2.45078947665869e-05
0.697,6.14561887347155e-06,2.45179197682491e-05
0.6975,6.15231211722059e-06,2.45276266740059e-05
0.698,6.15908785265652e-06,2.45370137726947e-05
0.6985,6.16594703132747e-06,2.45460794656176e-05
0.699,6.17289060293049e-06,2.45548222671282e-05
0.6995,6.17991951499401e-06,2.4563240805188e-05
0.7,6.18703471255946e-06,2.45713338218909e-05
0.7005,6.19423713786199e-06,2.45791001739581e-05
0.701,6.20152773001058e-06,2.45865388332011e-05
0.7015,6.20890742466755e-06,2.45936488869539e-05
0.702,6.21637715372737e-06,2.46004295384734e-05
0.7025,6.2239378449951e-06,2.46068801073087e-05
0.703,6.23159042186432e-06,2.46130000296393e-05
0.7035,6.2393358029948e-06,2.46187888585808e-05
0.704,6.24717490198986e-06,2.46242462644592e-05
0.7045,6.25510862707352e-06,2.46293720350539e-05
0.705,6.26313788076757e-06,2.46341660758082e-05
0.7055,6.27126355956855e-06,2.46386284100077e-05
0.706,6.2794865536248e-06,2.46427591789275e-05
0.7065,6.28780774641361e-06,2.46465586419462e-05
0.707,6.29622801441853e-06,2.46500271766288e-05
0.7075,6.30474822680694e-06,2.46531652787765e-05
0.708,6.31336924510796e-06,2.46559735624448e-05
0.7085,6.32209192289077e-06,2.46584527599293e-05
0.709,6.33091710544335e-06,2.46606037217186e-05
0.7095,6.33984562945178e-06,2.46624274164156e-05
0.71,6.34887832268026e-06,2.46639249306265e-05
0.7105,6.35801600365159e-06,2.46650974688159e-05
0.711,6.36725948132863e-06,2.4665946353132e-05
0.7115,6.37660955479646e-06,2.46664730231972e-05
0.712,6.38606701294545e-06,2.46666790358679e-05
0.7125,6.39563263415532e-06,2.46665660649609e-05
0.713,6.40530718598017e-06,2.4666135900948e-05
0.7135,6.41509142483465e-06,2.46653904506183e-05
0.714,6.42498609568131e-06,2.46643317367085e-05
0.7145,6.43499193171901e-06,2.46629618975001e-05
0.715,6.44510965407287e-06,2.46612831863853e-05
0.7155,6.45533997148529e-06,2.46592979714009e-05
0.716,6.46568358000863e-06,2.46570087347293e-05
0.7165,6.4761411626991e-06,2.46544180721683e-05
0.717,6.48671338931242e-06,2.46515286925688e-05
0.7175,6.49740091600088e-06,2.46483434172406e-05
0.718,6.50820438501216e-06,2.46448651793264e-05
0.7185,6.51912442438982e-06,2.46410970231446e-05
0.719,6.53016164767549e-06,2.46370421035001e-05
0.7195,6.54131665361298e-06,2.46327036849637e-05
0.72,6.55259002585422e-06,2.46280851411205e-05
0.7205,6.56398233266716e-06,2.4623189953787e-05
0.721,6.57549412664555e-06,2.4618021712197e-05
0.7215,6.58712594442099e-06,2.46125841121566e-05
0.722,6.59887830637689e-06,2.46068809551684e-05
0.7225,6.61075171636464e-06,2.46009161475252e-05
0.723,6.62274666142201e-06,2.45946936993731e-05
0.7235,6.63486361149385e-06,2.45882177237443e-05
0.724,6.64710301915503e-06,2.45814924355595e-05
0.7245,6.65946531933582e-06,2.45745221506006e-05
0.725,6.67195092904966e-06,2.45673112844534e-05
0.7255,6.68456024712341e-06,2.45598643514209e-05
0.726,6.69729365393017e-06,2.45521859634065e-05
0.7265,6.71015151112461e-06,2.45442808287687e-05
0.727,6.72313416138106e-06,2.45361537511465e-05
0.7275,6.73624192813421e-06,2.45278096282555e-05
0.728,6.74947511532253e-06,2.45192534506561e-05
0.7285,6.76283400713459e-06,2.45104903004929e-05
0.729,6.77631886775819e-06,2.45015253502058e-05
0.7295,6.78992994113245e-06,2.44923638612138e-05
0.73,6.80366745070274e-06,2.44830111825705e-05
0.7305,6.81753159917887e-06,2.44734727495927e-05
0.731,6.83152256829623e-06,2.44637540824617e-05
0.7315,6.84564051857999e-06,2.44538607847978e-05
0.732,6.85988558911282e-06,2.44437985422083e-05
0.7325,6.87425789730556e-06,2.44335731208094e-05
0.733,6.88875753867143e-06,2.44231903657224e-05
0.7335,6.90338458660356e-06,2.44126561995435e-05
0.734,6.91813909215603e-06,2.44019766207896e-05
0.7345,6.9330210838284e-06,2.43911577023185e-05
0.735,6.9480305673539e-06,2.43802055897243e-05
0.7355,6.96316752549119e-06,2.43691264997098e-05
0.736,6.97843191782002e-06,2.4357926718434e-05
0.7365,6.99382368054046e-06,2.43466125998365e-05
0.737,7.00934272627625e-06,2.43351905639397e-05
0.7375,7.02498894388191e-06,2.4323667095127e-05
0.738,7.04076219825404e-06,2.43120487404004e-05
0.7385,7.05666233014646e-06,2.43003421076154e-05
0.739,7.07268915598985e-06,2.42885538636945e-05
0.7395,7.08884246771536e-06,2.42766907328208e-05
0.74,7.10512203258266e-06,2.42647594946103e-05
0.7405,7.12152759301243e-06,2.42527669822653e-05
0.741,7.13805886642316e-06,2.42407200807069e-05
0.7415,7.15471554507277e-06,2.42286257246902e-05
0.742,7.1714972959046e-06,2.42164908969006e-05
0.7425,7.18840376039827e-06,2.42043226260314e-05
0.743,7.20543455442537e-06,2.41921279848455e-05
0.7435,7.22258926810991e-06,2.41799140882192e-05
0.744,7.23986746569382e-06,2.41676880911706e-05
0.7445,7.25726868540745e-06,2.41554571868715e-05
0.745,7.27479243934531e-06,2.41432286046451e-05
0.7455,7.29243821334679e-06,2.41310096079488e-05
0.746,7.31020546688244e-06,2.41188074923429e-05
0.7465,7.32809363294542e-06,2.41066295834467e-05
0.747,7.3461021179485e-06,2.40944832348807e-05
0.7475,7.36423030162658e-06,2.40823758261984e-05
0.748,7.38247753694483e-06,2.4070314760805e-05
0.7485,7.40084315001244e-06,2.40583074638663e-05
0.749,7.41932644000229e-06,2.4046361380207e-05
0.7495,7.43792667907641e-06,2.40344839721994e-05
0.75,7.45664311231725e-06,2.40226827176434e-05
0.7505,7.47547495766527e-06,2.40109651076376e-05
0.751,7.49442140586228e-06,2.39993386444437e-05
0.7515,7.51348162040114e-06,2.39878108393429e-05
0.752,7.53265473748173e-06,2.39763892104868e-05
0.7525,7.55193986597311e-06,2.39650812807417e-05
0.753,7.57133608738217e-06,2.39538945755291e-05
0.7535,7.59084245582874e-06,2.39428366206604e-05
0.754,7.61045799802716e-06,2.39319149401693e-05
0.7545,7.63018171327448e-06,2.39211370541397e-05
0.755,7.65001257344538e-06,2.39105104765331e-05
0.7555,7.66994952299368e-06,2.39000427130124e-05
0.756,7.68999147896077e-06,2.38897412587662e-05
0.7565,7.71013733099073e-06,2.38796135963316e-05
0.757,7.73038594135242e-06,2.38696671934185e-05
0.7575,7.75073614496848e-06,2.38599095007333e-05
0.758,7.77118674945131e-06,2.38503479498063e-05
0.7585,7.7917365351461e-06,2.3840989950819e-05
0.759,7.81238425518079e-06,2.38318428904365e-05
0.7595,7.83312863552331e-06,2.3822914129642e-05
0.76,7.85396837504588e-06,2.3814211001576e-05
0.7605,7.87490214559629e-06,2.38057408093803e-05
0.761,7.89592859207676e-06,2.37975108240478e-05
0.7615,7.9170463325295e-06,2.3789528282277e-05
0.762,7.93825395822987e-06,2.37818003843352e-05
0.7625,7.95955003378663e-06,2.37743342919273e-05
0.763,7.98093309724939e-06,2.37671371260731e-05
0.7635,8.00240166022332e-06,2.37602159649933e-05
0.764,8.02395420799116e-06,2.37535778420039e-05
0.7645,8.0455891996424e-06,2.37472297434213e-05
0.765,8.06730506820972e-06,2.37411786064765e-05
0.7655,8.08910022081267e-06,2.3735431317241e-05
0.766,8.11097303880851e-06,2.37299947085637e-05
0.7665,8.13292187795029e-06,2.37248755580201e-05
0.767,8.15494506855215e-06,2.37200805858737e-05
0.7675,8.17704091566156e-06,2.37156164530508e-05
0.768,8.19920769923899e-06,2.37114897591288e-05
0.7685,8.22144367434445e-06,2.37077070403389e-05
0.769,8.2437470713311e-06,2.37042747675837e-05
0.7695,8.2661160960461e-06,2.37011993444696e-05
0.77,8.28854893003812e-06,2.36984871053555e-05
0.7705,8.31104373077213e-06,2.36961443134182e-05
0.771,8.33359863185087e-06,2.36941771587336e-05
0.7715,8.35621174324322e-06,2.3692591756377e-05
0.772,8.37888115151954e-06,2.36913941445398e-05
0.7725,8.40160492009356e-06,2.36905902826661e-05
0.773,8.42438108947122e-06,2.36901860496072e-05
0.7735,8.44720767750586e-06,2.36901872417965e-05
0.774,8.47008267966037e-06,2.36905995714442e-05
0.7745,8.49300406927565e-06,2.36914286647529e-05
0.775,8.51596979784559e-06,2.36926800601537e-05
0.7755,8.53897779529863e-06,2.36943592065645e-05
0.776,8.56202597028537e-06,2.3696471461671e-05
0.7765,8.58511221047283e-06,2.36990220902289e-05
0.777,8.60823438284468e-06,2.3702016262391e-05
0.7775,8.6313903340077e-06,2.37054590520567e-05
0.778,8.65457789050434e-06,2.37093554352465e-05
0.7785,8.6777948591313e-06,2.37137102885012e-05
0.779,8.70103902726393e-06,2.37185283873053e-05
0.7795,8.72430816318667e-06,2.37238144045378e-05
0.78,8.74760001642903e-06,2.37295729089474e-05
0.7805,8.77091231810759e-06,2.37358083636554e-05
0.781,8.79424278127326e-06,2.37425251246853e-05
0.7815,8.81758910126441e-06,2.37497274395203e-05
0.782,8.84094895606524e-06,2.37574194456879e-05
0.7825,8.86432000666968e-06,2.3765605169374e-05
0.783,8.88769989745046e-06,2.37742885240652e-05
0.7835,8.91108625653357e-06,2.37834733092205e-05
0.784,8.93447669617774e-06,2.37931632089727e-05
0.7845,8.95786881315907e-06,2.38033617908603e-05
0.785,8.98126018916051e-06,2.38140725045896e-05
0.7855,9.00464839116651e-06,2.38252986808273e-05
0.786,9.0280309718621e-06,2.38370435300256e-05
0.7865,9.05140547003712e-06,2.38493101412783e-05
0.787,9.07476941099481e-06,2.38621014812085e-05
0.7875,9.09812030696521e-06,2.38754203928903e-05
0.788,9.12145565752263e-06,2.38892695948019e-05
0.7885,9.14477295000821e-06,2.39036516798126e-05
0.789,9.16806965995602e-06,2.39185691142032e-05
0.7895,9.19134325152396e-06,2.39340242367206e-05
0.79,9.21459117792863e-06,2.39500192576659e-05
0.7905,9.2378108818841e-06,2.39665562580174e-05
0.791,9.26099979604489e-06,2.39836371885888e-05
0.7915,9.28415534345272e-06,2.40012638692216e-05
0.792,9.30727493798707e-06,2.40194379880135e-05
0.7925,9.33035598481946e-06,2.40381611005821e-05
0.793,9.35339588087132e-06,2.40574346293645e-05
0.7935,9.37639201527546e-06,2.40772598629532e-05
0.794,9.39934176984103e-06,2.40976379554677e-05
0.7945,9.42224251952164e-06,2.41185699259632e-05
0.795,9.44509163288703e-06,2.41400566578759e-05
0.7955,9.46788647259767e-06,2.41620988985047e-05
0.796,9.49062439588265e-06,2.41846972585306e-05
0.7965,9.51330275502049e-06,2.4207852211573e-05
0.797,9.53591889782281e-06,2.42315640937834e-05
0.7975,9.55847016812094e-06,2.42558331034767e-05
0.798,9.58095390625511e-06,2.42806593008001e-05
0.7985,9.60336744956645e-06,2.43060426074394e-05
0.799,9.62570813289123e-06,2.43319828063643e-05
0.7995,9.64797328905789e-06,2.43584795416101e-05
0.8,9.67016024938608e-06,2.43855323180986e-05
0.8005,9.69226634418809e-06,2.44131405014965e-05
0.801,9.71428890327245e-06,2.44413033181122e-05
0.8015,9.73622525644932e-06,2.4470019854831e-05
0.802,9.75807273403809e-06,2.44992890590873e-05
0.8025,9.77982866737667e-06,2.45291097388769e-05
0.803,9.80149038933242e-06,2.45594805628054e-05
0.8035,9.82305523481475e-06,2.45904000601765e-05
0.804,9.84452054128935e-06,2.46218666211177e-05
0.8045,9.86588364929355e-06,2.46538784967434e-05
0.805,9.88714190295323e-06,2.46864337993572e-05
0.8055,9.90829265050074e-06,2.47195305026914e-05
0.806,9.92933324479394e-06,2.47531664421844e-05
0.8065,9.9502610438363e-06,2.47873393152961e-05
0.807,9.9710734112977e-06,2.48220466818601e-05
0.8075,9.99176771703604e-06,2.48572859644746e-05
0.808,1.00123413376196e-05,2.48930544489293e-05
0.8085,1.00327916568499e-05,2.49293492846699e-05
0.809,1.00531160662845e-05,2.49661674853003e-05
0.8095,1.00733119657609e-05,2.50035059291201e-05
0.81,1.00933767639204e-05,2.50413613596994e-05
0.8105,1.01133078787314e-05,2.50797303864904e-05
0.811,1.01331027380133e-05,2.51186094854737e-05
0.8115,1.01527587799602e-05,2.51579949998419e-05
0.812,1.01722734536644e-05,2.51978831407178e-05
0.8125,1.0191644219639e-05,2.52382699879081e-05
0.813,1.02108685503402e-05,2.52791514906923e-05
0.8135,1.02299439306898e-05,2.53205234686461e-05
0.814,1.02488678585955e-05,2.53623816124999e-05
0.8145,1.02676378454715e-05,2.540472148503e-05
0.815,1.02862514167576e-05,2.54475385219855e-05
0.8155,1.03047061124375e-05,2.54908280330469e-05
0.816,1.03229994875552e-05,2.55345852028193e-05
0.8165,1.03411291127307e-05,2.55788050918578e-05
0.817,1.0359092574674e-05,2.56234826377248e-05
0.8175,1.03768874766977e-05,2.56686126560812e-05
0.818,1.03945114392271e-05,2.57141898418068e-05
0.8185,1.0411962100309e-05,2.57602087701547e-05
0.819,1.04292371161191e-05,2.58066638979347e-05
0.8195,1.04463341614654e-05,2.58535495647284e-05
0.82,1.04632509302918e-05,2.5900859994134e-05
0.8205,1.0479985136177e-05,2.59485892950409e-05
0.821,1.04965345128322e-05,2.59967314629337e-05
0.8215,1.05128968145962e-05,2.60452803812252e-05
0.822,1.05290698169266e-05,2.60942298226176e-05
0.8225,1.05450513168894e-05,2.61435734504917e-05
0.823,1.05608391336446e-05,2.61933048203236e-05
0.8235,1.0576431108929e-05,2.62434173811289e-05
0.824,1.05918251075357e-05,2.62939044769327e-05
0.8245,1.06070190177896e-05,2.63447593482665e-05
0.825,1.06220107520206e-05,2.63959751336897e-05
0.8255,1.06367982470312e-05,2.64475448713375e-05
0.826,1.06513794645618e-05,2.6499461500492e-05
0.8265,1.06657523917515e-05,2.6551717863179e-05
0.827,1.06799150415943e-05,2.66043067057866e-05
0.8275,1.06938654533919e-05,2.66572206807088e-05
0.828,1.07076016932012e-05,2.67104523480102e-05
0.8285,1.07211218542781e-05,2.67639941771138e-05
0.829,1.07344240575161e-05,2.68178385485098e-05
0.8295,1.07475064518805e-05,2.68719777554858e-05
0.83,1.0760367214837e-05,2.69264040058776e-05
0.8305,1.07730045527764e-05,2.69811094238398e-05
0.831,1.07854167014334e-05,2.70360860516362e-05
0.8315,1.07976019262998e-05,2.70913258514494e-05
0.832,1.08095585230334e-05,2.71468207072081e-05
0.8325,1.08212848178605e-05,2.72025624264336e-05
0.833,1.08327791679729e-05,2.72585427421027e-05
0.8335,1.08440399619199e-05,2.73147533145285e-05
0.834,1.08550656199932e-05,2.73711857332569e-05
0.8345,1.0865854594607e-05,2.74278315189796e-05
0.835,1.08764053706714e-05,2.7484682125462e-05
0.8355,1.08867164659599e-05,2.75417289414869e-05
0.836,1.08967864314704e-05,2.75989632928119e-05
0.8365,1.090661385178e-05,2.76563764441406e-05
0.837,1.09161973453933e-05,2.77139596011081e-05
0.8375,1.09255355650838e-05,2.77717039122787e-05
0.838,1.09346271982293e-05,2.78296004711559e-05
0.8385,1.09434709671396e-05,2.7887640318205e-05
0.839,1.09520656293781e-05,2.79458144428867e-05
0.8395,1.0960409978076e-05,2.8004113785701e-05
0.84,1.09685028422396e-05,2.8062529240243e-05
0.8405,1.09763430870502e-05,2.81210516552669e-05
0.841,1.09839296141571e-05,2.81796718367602e-05
0.8415,1.09912613619629e-05,2.82383805500268e-05
0.842,1.09983373059018e-05,2.82971685217783e-05
0.8425,1.10051564587097e-05,2.83560264422326e-05
0.843,1.10117178706877e-05,2.84149449672208e-05
0.8435,1.10180206299566e-05,2.84739147202998e-05
0.844,1.10240638627052e-05,2.85329262948718e-05
0.8445,1.10298467334296e-05,2.85919702563092e-05
0.845,1.10353684451645e-05,2.8651037144085e-05
0.8455,1.10406282397081e-05,2.87101174739072e-05
0.846,1.10456253978365e-05,2.87692017398583e-05
0.8465,1.10503592395124e-05,2.88282804165376e-05
0.847,1.1054829124084e-05,2.88873439612067e-05
0.8475,1.10590344504762e-05,2.8946382815938e-05
0.848,1.10629746573735e-05,2.90053874097647e-05
0.8485,1.10666492233947e-05,2.90643481608327e-05
0.849,1.10700576672588e-05,2.9123255478553e-05
0.8495,1.10731995479426e-05,2.91820997657553e-05
0.85,1.10760744648297e-05,2.92408714208406e-05
0.8505,1.1078682057851e-05,2.92995608399342e-05
0.851,1.10810220076169e-05,2.93581584190363e-05
0.8515,1.10830940355396e-05,2.94166545561726e-05
0.852,1.10848979039485e-05,2.94750396535412e-05
0.8525,1.1086433416195e-05,2.95333041196577e-05
0.853,1.10877004167498e-05,2.9591438371497e-05
0.8535,1.10886987912908e-05,2.96494328366307e-05
0.854,1.10894284667819e-05,2.97072779553615e-05
0.8545,1.10898894115434e-05,2.97649641828513e-05
0.855,1.10900816353132e-05,2.98224819912454e-05
0.8555,1.10900051892988e-05,2.98798218717898e-05
0.856,1.10896601662205e-05,2.99369743369429e-05
0.8565,1.10890467003456e-05,2.99939299224802e-05
0.857,1.10881649675134e-05,3.00506791895912e-05
0.8575,1.10870151851508e-05,3.01072127269688e-05
0.858,1.10855976122799e-05,3.01635211528905e-05
0.8585,1.10839125495148e-05,3.02195951172905e-05
0.859,1.10819603390506e-05,3.02754253038226e-05
0.8595,1.10797413646428e-05,3.03310024319125e-05
0.86,1.10772560515771e-05,3.03863172588015e-05
0.8605,1.10745048666307e-05,3.0441360581577e-05
0.861,1.10714883180238e-05,3.04961232391939e-05
0.8615,1.10682069553622e-05,3.05505961144825e-05
0.862,1.10646613695708e-05,3.06047701361458e-05
0.8625,1.10608521928176e-05,3.06586362807421e-05
0.863,1.10567800984282e-05,3.07121855746564e-05
0.8635,1.1052445800792e-05,3.07654090960564e-05
0.864,1.10478500552584e-05,3.08182979768357e-05
0.8645,1.10429936580239e-05,3.08708434045418e-05
0.865,1.103787744601e-05,3.09230366242889e-05
0.8655,1.10325022967325e-05,3.09748689406557e-05
0.866,1.10268691281606e-05,3.10263317195673e-05
0.8665,1.10209788985677e-05,3.10774163901599e-05
0.867,1.10148326063725e-05,3.11281144466306e-05
0.8675,1.10084312899713e-05,3.11784174500672e-05
0.868,1.10017760275609e-05,3.12283170302636e-05
0.8685,1.0994867936953e-05,3.12778048875147e-05
0.869,1.09877081753784e-05,3.13268727943939e-05
0.8695,1.09802979392835e-05,3.13755125975118e-05
0.87,1.09726384641172e-05,3.14237162192557e-05
0.8705,1.09647310241082e-05,3.1471475659509e-05
0.871,1.09565769320345e-05,3.15187829973515e-05
0.8715,1.09481775389833e-05,3.1565630392738e-05
0.872,1.09395342341022e-05,3.16120100881578e-05
0.8725,1.09306484443416e-05,3.16579144102718e-05
0.873,1.09215216341882e-05,3.17033357715285e-05
0.8735,1.091215530539e-05,3.17482666717588e-05
0.874,1.09025509966724e-05,3.17926996997471e-05
0.8745,1.0892710283446e-05,3.18366275347822e-05
0.875,1.08826347775054e-05,3.18800429481828e-05
0.8755,1.08723261267197e-05,3.19229388048015e-05
0.876,1.08617860147148e-05,3.1965308064505e-05
0.8765,1.08510161605468e-05,3.200714378363e-05
0.877,1.08400183183678e-05,3.20484391164151e-05
0.8775,1.08287942770826e-05,3.20891873164084e-05
0.878,1.0817345859998e-05,3.21293817378509e-05
0.8785,1.08056749244633e-05,3.21690158370329e-05
0.879,1.07937833615039e-05,3.22080831736275e-05
0.8795,1.07816730954454e-05,3.22465774119967e-05
0.88,1.07693460835312e-05,3.22844923224724e-05
0.8805,1.07568043155316e-05,3.23218217826109e-05
0.881,1.07440498133455e-05,3.23585597784213e-05
0.8815,1.07310846305944e-05,3.23947004055666e-05
0.882,1.07179108522088e-05,3.24302378705387e-05
0.8825,1.07045305940078e-05,3.24651664918053e-05
0.883,1.06909460022701e-05,3.24994807009302e-05
0.8835,1.06771592532992e-05,3.25331750436651e-05
0.884,1.06631725529809e-05,3.25662441810143e-05
0.8845,1.06489881363331e-05,3.2598682890271e-05
0.885,1.06346082670502e-05,3.26304860660245e-05
0.8855,1.06200352370394e-05,3.26616487211403e-05
0.886,1.06052713659504e-05,3.26921659877104e-05
0.8865,1.05903190006998e-05,3.27220331179746e-05
0.887,1.05751805149871e-05,3.27512454852129e-05
0.8875,1.05598583088062e-05,3.2779798584609e-05
0.888,1.05443548079492e-05,3.28076880340831e-05
0.8885,1.05286724635047e-05,3.28349095750961e-05
0.889,1.05128137513507e-05,3.28614590734232e-05
0.8895,1.04967811716404e-05,3.28873325198975e-05
0.89,1.04805772482827e-05,3.29125260311238e-05
0.8905,1.04642045284181e-05,3.29370358501611e-05
0.891,1.04476655818873e-05,3.29608583471758e-05
0.8915,1.04309630006958e-05,3.29839900200629e-05
0.892,1.0414099398473e-05,3.30064274950372e-05
0.8925,1.03970774099255e-05,3.30281675271935e-05
0.893,1.03798996902867e-05,3.30492070010351e-05
0.8935,1.03625689147602e-05,3.30695429309716e-05
0.894,1.03450877779595e-05,3.30891724617857e-05
0.8945,1.03274589933429e-05,3.31080928690678e-05
0.895,1.0309685292644e-05,3.31263015596198e-05
0.8955,1.02917694252978e-05,3.31437960718267e-05
0.896,1.0273714157863e-05,3.31605740759972e-05
0.8965,1.02555222734401e-05,3.31766333746725e-05
0.897,1.02371965710861e-05,3.3191971902903e-05
0.8975,1.02187398652251e-05,3.32065877284934e-05
0.898,1.02001549850559e-05,3.32204790522161e-05
0.8985,1.01814447739559e-05,3.32336442079928e-05
0.899,1.01626120888824e-05,3.3246081663044e-05
0.8995,1.01436597997703e-05,3.32577900180066e-05
0.9,1.01245907889274e-05,3.32687680070202e-05
0.9005,1.01054079504272e-05,3.32790144977806e-05
0.901,1.00861141894988e-05,3.32885284915623e-05
0.9015,1.00667124219148e-05,3.32973091232086e-05
0.902,1.00472055733771e-05,3.33053556610902e-05
0.9025,1.00275965789007e-05,3.33126675070314e-05
0.903,1.00078883821959e-05,3.33192441962057e-05
0.9035,9.98808393504839e-06,3.33250853969983e-05
0.904,9.96818619669861e-06,3.33301909108378e-05
0.9045,9.94819813321953e-06,3.33345606719959e-05
0.905,9.9281227168933e-06,3.33381947473562e-05
0.9055,9.90796292558732e-06,3.33410933361505e-05
0.906,9.88772174212941e-06,3.33432567696644e-05
0.9065,9.86740215368246e-06,3.33446855109118e-05
0.907,9.84700715111889e-06,3.33453801542775e-05
0.9075,9.8265397283949e-06,3.33453414251296e-05
0.908,9.80600288192481e-06,3.33445701794001e-05
0.9085,9.78539960995543e-06,3.33430674031356e-05
0.909,9.76473291194117e-06,3.33408342120164e-05
0.9095,9.74400578791944e-06,3.33378718508462e-05
0.91,9.72322123788711e-06,3.33341816930101e-05
0.9105,9.70238226117759e-06,3.3329765239904e-05
0.911,9.68149185583942e-06,3.33246241203322e-05
0.9115,9.66055301801596e-06,3.3318760089877e-05
0.912,9.63956874132667e-06,3.33121750302372e-05
0.9125,9.6185420162501e-06,3.33048709485378e-05
0.913,9.59747582950886e-06,3.32968499766102e-05
0.9135,9.57637316345644e-06,3.32881143702442e-05
0.914,9.55523699546652e-06,3.32786665084095e-05
0.9145,9.53407029732464e-06,3.32685088924502e-05
0.915,9.51287603462242e-06,3.32576441452506e-05
0.9155,9.4916571661547e-06,3.3246075010372e-05
0.916,9.4704166433196e-06,3.32338043511627e-05
0.9165,9.4491574095218e-06,3.32208351498403e-05
0.917,9.42788239957906e-06,3.32071705065458e-05
0.9175,9.40659453913233e-06,3.3192813638372e-05
0.918,9.38529674405956e-06,3.31777678783642e-05
0.9185,9.36399191989328e-06,3.3162036674495e-05
0.919,9.34268296124237e-06,3.31456235886128e-05
0.9195,9.32137275121775e-06,3.31285322953641e-05
0.92,9.30006416086278e-06,3.31107665810914e-05
0.9205,9.27876004858784e-06,3.30923303427052e-05
0.921,9.25746325960984e-06,3.30732275865307e-05
0.9215,9.23617662539647e-06,3.30534624271318e-05
0.922,9.21490296311543e-06,3.3033039086109e-05
0.9225,9.19364507508883e-06,3.30119618908754e-05
0.923,9.17240574825291e-06,3.29902352734077e-05
0.9235,9.15118775362315e-06,3.29678637689759e-05
0.924,9.12999384576499e-06,3.29448520148494e-05
0.9245,9.10882676227032e-06,3.29212047489808e-05
0.925,9.08768922323973e-06,3.28969268086695e-05
0.9255,9.0665839307708e-06,3.28720231292018e-05
0.926,9.04551356845264e-06,3.2846498742472e-05
0.9265,9.02448080086637e-06,3.28203587755821e-05
0.927,9.00348827309235e-06,3.27936084494219e-05
0.9275,8.98253861022353e-06,3.27662530772291e-05
0.928,8.96163441688568e-06,3.27382980631313e-05
0.9285,8.94077827676423e-06,3.27097489006676e-05
0.929,8.91997275213785e-06,3.26806111712942e-05
0.9295,8.89922038341915e-06,3.26508905428708e-05
0.93,8.87852368870216e-06,3.26205927681301e-05
0.9305,8.85788516331712e-06,3.2589723683131e-05
0.931,8.83730727939248e-06,3.25582892056954e-05
0.9315,8.81679248542397e-06,3.25262953338283e-05
0.932,8.79634320585135e-06,3.24937481441244e-05
0.9325,8.77596184064248e-06,3.24606537901585e-05
0.933,8.75565076488482e-06,3.24270185008622e-05
0.9335,8.73541232838479e-06,3.23928485788864e-05
0.934,8.71524885527448e-06,3.23581503989513e-05
0.9345,8.69516264362647e-06,3.23229304061832e-05
0.935,8.67515596507606e-06,3.22871951144386e-05
0.9355,8.65523106445162e-06,3.22509511046174e-05
0.936,8.63539015941268e-06,3.22142050229643e-05
0.9365,8.61563544009601e-06,3.21769635793599e-05
0.937,8.59596906876966e-06,3.21392335456008e-05
0.9375,8.5763931794951e-06,3.21010217536708e-05
0.938,8.55690987779712e-06,3.20623350940025e-05
0.9385,8.53752124034229e-06,3.20231805137304e-05
0.939,8.5182293146249e-06,3.19835650149352e-05
0.9395,8.49903611866161e-06,3.19434956528809e-05
0.94,8.47994364069374e-06,3.19029795342451e-05
0.9405,8.46095383889799e-06,3.18620238153411e-05
0.941,8.44206864110526e-06,3.18206357003355e-05
0.9415,8.42328994452742e-06,3.17788224394585e-05
0.942,8.40461961549254e-06,3.17365913272105e-05
0.9425,8.38605948918799e-06,3.16939497005625e-05
0.943,8.36761136941186e-06,3.16509049371534e-05
0.9435,8.34927702833242e-06,3.16074644534826e-05
0.944,8.33105820625577e-06,3.15636357031003e-05
0.9445,8.31295661140157e-06,3.15194261747942e-05
0.945,8.29497391968683e-06,3.14748433907744e-05
0.9455,8.27711177451793e-06,3.14298949048565e-05
0.946,8.25937178659049e-06,3.13845883006434e-05
0.9465,8.24175553369751e-06,3.13389311897063e-05
0.947,8.2242645605454e-06,3.12929312097654e-05
0.9475,8.20690037857804e-06,3.1246596022871e-05
0.948,8.18966446580884e-06,3.11999333135854e-05
0.9485,8.17255826666074e-06,3.11529507871658e-05
0.949,8.15558319181412e-06,3.11056561677489e-05
0.9495,8.13874061806267e-06,3.10580571965382e-05
0.95,8.12203188817701e-06,3.10101616299936e-05
0.9505,8.10545831077628e-06,3.09619772380245e-05
0.951,8.08902116020741e-06,3.09135118021861e-05
0.9515,8.07272167643221e-06,3.08647731138811e-05
0.952,8.05656106492227e-06,3.08157689725649e-05
0.9525,8.04054049656122e-06,3.07665071839569e-05
0.953,8.02466110755514e-06,3.07169955582571e-05
0.9535,8.00892399935018e-06,3.06672419083694e-05
0.954,7.99333023855783e-06,3.06172540481309e-05
0.9545,7.9778808568878e-06,3.05670397905494e-05
0.955,7.96257685108831e-06,3.05166069460483e-05
0.9555,7.94741918289376e-06,3.04659633207193e-05
0.956,7.93240877897981e-06,3.04151167145843e-05
0.9565,7.91754653092583e-06,3.03640749198668e-05
0.957,7.90283329518448e-06,3.03128457192721e-05
0.9575,7.88826989305868e-06,3.02614368842784e-05
0.958,7.87385711068562e-06,3.0209856173438e-05
0.9585,7.85959569902782e-06,3.01581113306902e-05
0.959,7.84548637387155e-06,3.01062100836847e-05
0.9595,7.83152981583184e-06,3.00541601421185e-05
0.96,7.81772667036476e-06,3.00019691960831e-05
0.9605,7.80407754778651e-06,2.99496449144267e-05
0.961,7.79058302329925e-06,2.98971949431279e-05
0.9615,7.77724363702376e-06,2.98446269036843e-05
0.962,7.76405989403902e-06,2.97919483915147e-05
0.9625,7.75103226442815e-06,2.97391669743751e-05
0.963,7.73816118333117e-06,2.96862901907914e-05
0.9635,7.72544705100424e-06,2.96333255485052e-05
0.964,7.71289023288547e-06,2.95802805229368e-05
0.9645,7.7004910596671e-06,2.95271625556636e-05
0.965,7.68824982737405e-06,2.94739790529151e-05
0.9655,7.67616679744898e-06,2.94207373840842e-05
0.966,7.66424219684334e-06,2.93674448802563e-05
0.9665,7.65247621811489e-06,2.93141088327548e-05
0.967,7.64086901953128e-06,2.92607364917054e-05
0.9675,7.62942072517969e-06,2.92073350646179e-05
0.968,7.61813142508258e-06,2.91539117149858e-05
0.9685,7.60700117531952e-06,2.91004735609059e-05
0.969,7.59602999815476e-06,2.90470276737157e-05
0.9695,7.58521788217086e-06,2.89935810766502e-05
0.97,7.57456478240811e-06,2.89401407435188e-05
0.9705,7.56407062050966e-06,2.88867135974013e-05
0.971,7.55373528487251e-06,2.88333065093642e-05
0.9715,7.54355863080409e-06,2.87799262971975e-05
0.972,7.5335404806844e-06,2.87265797241715e-05
0.9725,7.52368062413395e-06,2.86732734978152e-05
0.973,7.51397881818696e-06,2.86200142687147e-05
0.9735,7.50443478747023e-06,2.85668086293337e-05
0.974,7.49504822438736e-06,2.85136631128551e-05
0.9745,7.48581878930836e-06,2.84605841920445e-05
0.975,7.47674611076463e-06,2.84075782781353e-05
0.9755,7.46782978564914e-06,2.83546517197361e-05
0.976,7.45906937942205e-06,2.83018108017611e-05
0.9765,7.45046442632126e-06,2.82490617443816e-05
0.977,7.44201442957832e-06,2.81964107020016e-05
0.9775,7.43371886163943e-06,2.8143863762256e-05
0.978,7.42557716439142e-06,2.80914269450312e-05
0.9785,7.41758874939277e-06,2.80391062015105e-05
0.979,7.40975299810971e-06,2.79869074132414e-05
0.9795,7.40206926215706e-06,2.79348363912275e-05
0.98,7.39453686354417e-06,2.78828988750445e-05
0.9805,7.38715509492552e-06,2.78311005319793e-05
0.981,7.37992321985622e-06,2.77794469561941e-05
0.9815,7.37284047305222e-06,2.77279436679147e-05
0.982,7.36590606065514e-06,2.76765961126425e-05
0.9825,7.35911916050195e-06,2.76254096603926e-05
0.983,7.35247892239902e-06,2.7574389604955e-05
0.9835,7.34598446840097e-06,2.75235411631826e-05
0.984,7.33963489309368e-06,2.74728694743018e-05
0.9845,7.33342926388219e-06,2.74223795992509e-05
0.985,7.32736662128266e-06,2.73720765200418e-05
0.9855,7.32144597921884e-06,2.73219651391477e-05
0.986,7.31566632532283e-06,2.72720502789166e-05
0.9865,7.31002662124008e-06,2.72223366810096e-05
0.987,7.30452580293865e-06,2.71728290058659e-05
0.9875,7.2991627810225e-06,2.71235318321922e-05
0.988,7.29393644104905e-06,2.70744496564789e-05
0.9885,7.28884564385064e-06,2.70255868925419e-05
0.989,7.28388922586011e-06,2.697694787109e-05
0.9895,7.27906599944021e-06,2.69285368393183e-05
0.99,7.27437475321704e-06,2.68803579605279e-05
0.9905,7.26981425241717e-06,2.68324153137715e-05
0.991,7.26538323920861e-06,2.67847128935246e-05
0.9915,7.26108043304553e-06,2.67372546093829e-05
0.992,7.25690453101662e-06,2.66900442857864e-05
0.9925,7.25285420819703e-06,2.66430856617683e-05
0.993,7.2489281180038e-06,2.65963823907308e-05
0.9935,7.24512489255493e-06,2.65499380402464e-05
0.994,7.24144314303178e-06,2.65037560918854e-05
0.9945,7.23788146004471e-06,2.64578399410685e-05
0.995,7.23443841400228e-06,2.64121928969467e-05
0.9955,7.23111255548338e-06,2.6366818182305e-05
0.996,7.22790241561285e-06,2.63217189334932e-05
0.9965,7.22480650643994e-06,2.62768982003815e-05
0.997,7.22182332131986e-06,2.62323589463417e-05
0.9975,7.21895133529848e-06,2.61881040482541e-05
0.998,7.21618900549971e-06,2.61441362965391e-05
0.9985,7.21353477151586e-06,2.61004583952141e-05
0.999,7.21098705580069e-06,2.60570729619754e-05
0.9995,7.20854426406524e-06,2.60139825283051e-05
1,7.2062047856762e-06,2.59711895396025e-05
1.0005,7.20396699405689e-06,2.59286963553399e-05
1.001,7.20182924709066e-06,2.58865052492437e-05
1.0015,7.19978988752676e-06,2.58446184094979e-05
1.002,7.19784724338845e-06,2.58030379389736e-05
1.0025,7.19599962838329e-06,2.57617658554812e-05
1.003,7.19424534231586e-06,2.57208040920466e-05
1.0035,7.19258267150214e-06,2.56801544972106e-05
1.004,7.19100988918616e-06,2.56398188353518e-05
1.0045,7.1895252559585e-06,2.55997987870326e-05
1.005,7.1881270201765e-06,2.55600959493674e-05
1.0055,7.18681341838633e-06,2.55207118364138e-05
1.006,7.1855826757466e-06,2.54816478795861e-05
1.0065,7.18443300645359e-06,2.54429054280906e-05
1.007,7.18336261416799e-06,2.54044857493827e-05
1.0075,7.18236969244283e-06,2.53663900296458e-05
1.008,7.18145242515296e-06,2.53286193742908e-05
1.0085,7.1806089869256e-06,2.52911748084778e-05
1.009,7.17983754357204e-06,2.52540572776568e-05
1.0095,7.17913625252029e-06,2.52172676481305e-05
1.01,7.17850326324894e-06,2.51808067076364e-05
1.0105,7.17793671772156e-06,2.51446751659489e-05
1.011,7.17743475082216e-06,2.5108873655501e-05
1.0115,7.1769954907912e-06,2.50734027320257e-05
1.012,7.17661705966226e-06,2.50382628752161e-05
1.0125,7.17629757369934e-06,2.50034544894045e-05
1.013,7.17603514383451e-06,2.49689779042596e-05
1.0135,7.17582787610602e-06,2.49348333755026e-05
1.014,7.17567387209666e-06,2.49010210856404e-05
1.0145,7.17557122937248e-06,2.48675411447173e-05
1.015,7.17551804192155e-06,2.48343935910832e-05
1.0155,7.17551240059287e-06,2.48015783921793e-05
1.016,7.17555239353525e-06,2.47690954453411e-05
1.0165,7.17563610663622e-06,2.47369445786163e-05
1.017,7.17576162396069e-06,2.47051255516008e-05
1.0175,7.17592702818951e-06,2.46736380562889e-05
1.018,7.17613040105767e-06,2.46424817179408e-05
1.0185,7.17636982379223e-06,2.46116560959637e-05
1.019,7.17664337754976e-06,2.45811606848093e-05
1.0195,7.17694914385338e-06,2.45509949148853e-05
1.02,7.17728520502908e-06,2.45211581534819e-05
1.0205,7.1776496446416e-06,2.4491649705712e-05
1.021,7.17804054792944e-06,2.44624688154657e-05
1.0215,7.17845600223917e-06,2.44336146663779e-05
1.022,7.17889409745891e-06,2.44050863828099e-05
1.0225,7.17935292645078e-06,2.43768830308435e-05
1.023,7.17983058548242e-06,2.43490036192879e-05
1.0235,7.18032517465748e-06,2.43214471006992e-05
1.024,7.18083479834483e-06,2.42942123724117e-05
1.0245,7.18135756560666e-06,2.42672982775811e-05
1.025,7.18189159062533e-06,2.42407036062395e-05
1.0255,7.18243499312856e-06,2.4214427096361e-05
1.026,7.18298589881358e-06,2.41884674349384e-05
1.0265,7.18354243976944e-06,2.41628232590704e-05
1.027,7.18410275489788e-06,2.4137493157059e-05
1.0275,7.18466499033241e-06,2.41124756695164e-05
1.028,7.18522729985579e-06,2.40877692904817e-05
1.0285,7.18578784531549e-06,2.40633724685468e-05
1.029,7.18634479703735e-06,2.40392836079903e-05
1.0295,7.18689633423731e-06,2.4015501069921e-05
1.03,7.18744064543091e-06,2.39920231734281e-05
1.0305,7.18797592884076e-06,2.39688481967401e-05
1.031,7.1885003928018e-06,2.39459743783904e-05
1.0315,7.18901225616411e-06,2.39233999183899e-05
1.032,7.18950974869357e-06,2.39011229794064e-05
1.0325,7.18999111146979e-06,2.38791416879494e-05
1.033,7.19045459728175e-06,2.38574541355615e-05
1.0335,7.19089847102057e-06,2.38360583800145e-05
1.034,7.19132101006983e-06,2.38149524465107e-05
1.0345,7.19172050469282e-06,2.37941343288883e-05
1.035,7.1920952584172e-06,2.37736019908315e-05
1.0355,7.19244358841642e-06,2.37533533670838e-05
1.036,7.19276382588841e-06,2.37333863646647e-05
1.0365,7.19305431643083e-06,2.37136988640891e-05
1.037,7.19331342041339e-06,2.36942887205888e-05
1.0375,7.19353951334671e-06,2.36751537653368e-05
1.038,7.19373098624788e-06,2.36562918066719e-05
1.0385,7.19388624600259e-06,2.36377006313251e-05
1.039,7.19400371572367e-06,2.36193780056461e-05
1.0395,7.19408183510605e-06,2.36013216768301e-05
1.04,7.19411906077804e-06,2.35835293741441e-05
1.0405,7.1941138666488e-06,2.35659988101525e-05
1.041,7.194064744252e-06,2.35487276819412e-05
1.0415,7.19397020308549e-06,2.353171367234e-05
1.042,7.19382877094696e-06,2.35149544511427e-05
1.0425,7.19363899426559e-06,2.34984476763247e-05
1.043,7.1933994384294e-06,2.34821909952574e-05
1.0435,7.19310868810842e-06,2.34661820459185e-05
1.044,7.19276534757351e-06,2.3450418458099e-05
1.0445,7.19236804101079e-06,2.34348978546051e-05
1.045,7.19191541283151e-06,2.34196178524555e-05
1.0455,7.19140612797749e-06,2.34045760640727e-05
1.046,7.19083887222174e-06,2.33897700984693e-05
1.0465,7.19021235246454e-06,2.3375197562427e-05
1.047,7.18952529702455e-06,2.33608560616695e-05
1.0475,7.18877645592527e-06,2.33467432020281e-05
1.048,7.18796460117634e-06,2.33328565905992e-05
1.0485,7.18708852704998e-06,2.33191938368944e-05
1.049,7.18614705035232e-06,2.33057525539812e-05
1.0495,7.18513901068952e-06,2.32925303596159e-05
1.05,7.18406327072882e-06,2.32795248773659e-05
1.0505,7.18291871645413e-06,2.32667337377231e-05
1.051,7.18170425741641e-06,2.32541545792065e-05
1.0515,7.18041882697866e-06,2.32417850494549e-05
1.052,7.17906138255525e-06,2.32296228063079e-05
1.0525,7.17763090584604e-06,2.32176655188759e-05
1.053,7.17612640306452e-06,2.32059108685982e-05
1.0535,7.17454690516069e-06,2.31943565502889e-05
1.054,7.17289146803795e-06,2.31830002731708e-05
1.0545,7.17115917276438e-06,2.31718397618957e-05
1.055,7.16934912577815e-06,2.31608727575521e-05
1.0555,7.16746045908711e-06,2.31500970186592e-05
1.056,7.16549233046235e-06,2.3139510322147e-05
1.0565,7.16344392362602e-06,2.31291104643223e-05
1.057,7.16131444843285e-06,2.31188952618204e-05
1.0575,7.15910314104586e-06,2.31088625525417e-05
1.058,7.1568092641058e-06,2.30990101965738e-05
1.0585,7.15443210689456e-06,2.30893360770978e-05
1.059,7.15197098549231e-06,2.30798381012793e-05
1.0595,7.14942524292847e-06,2.30705142011433e-05
1.06,7.14679424932644e-06,2.30613623344337e-05
1.0605,7.14407740204185e-06,2.30523804854554e-05
1.061,7.14127412579479e-06,2.30435666659011e-05
1.0615,7.1383838727954e-06,2.30349189156603e-05
1.062,7.1354061228632e-06,2.30264353036119e-05
1.0625,7.13234038353996e-06,2.30181139283992e-05
1.063,7.12918619019612e-06,2.30099529191882e-05
1.0635,7.12594310613079e-06,2.30019504364077e-05
1.064,7.12261072266511e-06,2.29941046724715e-05
1.0645,7.11918865922933e-06,2.29864138524837e-05
1.065,7.115676563443e-06,2.29788762349245e-05
1.0655,7.11207411118905e-06,2.29714901123194e-05
1.066,7.10838100668091e-06,2.29642538118882e-05
1.0665,7.10459698252325e-06,2.2957165696177e-05
1.067,7.1007217997661e-06,2.29502241636707e-05
1.0675,7.09675524795236e-06,2.29434276493868e-05
1.068,7.09269714515861e-06,2.29367746254506e-05
1.0685,7.08854733802951e-06,2.29302636016512e-05
1.069,7.0843057018053e-06,2.29238931259783e-05
1.0695,7.07997214034288e-06,2.29176617851397e-05
1.07,7.07554658613022e-06,2.29115682050597e-05
1.0705,7.07102900029397e-06,2.29056110513582e-05
1.071,7.06641937260063e-06,2.28997890298099e-05
1.0715,7.06171772145091e-06,2.28941008867841e-05
1.072,7.05692409386767e-06,2.28885454096656e-05
1.0725,7.05203856547689e-06,2.28831214272544e-05
1.073,7.04706124048232e-06,2.28778278101479e-05
1.0735,7.04199225163334e-06,2.28726634711009e-05
1.074,7.03683176018619e-06,2.28676273653682e-05
1.0745,7.03157995585868e-06,2.28627184910257e-05
1.075,7.02623705677821e-06,2.28579358892729e-05
1.0755,7.02080330942323e-06,2.28532786447149e-05
1.076,7.01527898855819e-06,2.28487458856252e-05
1.0765,7.00966439716178e-06,2.28443367841882e-05
1.077,7.00395986634878e-06,2.28400505567227e-05
1.0775,6.99816575528529e-06,2.28358864638854e-05
1.078,6.99228245109747e-06,2.28318438108544e-05
1.0785,6.98631036877383e-06,2.28279219474939e-05
1.079,6.98024995106092e-06,2.28241202684989e-05
1.0795,6.9741016683528e-06,2.28204382135202e-05
1.08,6.96786601857383e-06,2.28168752672707e-05
1.0805,6.96154352705519e-06,2.28134309596118e-05
1.081,6.95513474640506e-06,2.28101048656205e-05
1.0815,6.94864025637226e-06,2.2806896605638e-05
1.082,6.94206066370377e-06,2.28038058452983e-05
1.0825,6.93539660199579e-06,2.28008322955384e-05
1.083,6.92864873153855e-06,2.2797975712589e-05
1.0835,6.92181773915493e-06,2.27952358979475e-05
1.084,6.91490433803276e-06,2.27926126983308e-05
1.0845,6.90790926755094e-06,2.27901060056104e-05
1.085,6.90083329309953e-06,2.27877157567292e-05
1.0855,6.89367720589342e-06,2.27854419335988e-05
1.086,6.8864418227802e-06,2.27832845629799e-05
1.0865,6.87912798604182e-06,2.27812437163438e-05
1.087,6.87173656319013e-06,2.27793195097156e-05
1.0875,6.86426844675667e-06,2.27775121035004e-05
1.088,6.85672455407628e-06,2.2775821702291e-05
1.0885,6.84910582706489e-06,2.27742485546583e-05
1.089,6.8414132319915e-06,2.27727929529246e-05
1.0895,6.83364775924422e-06,2.27714552329185e-05
1.09,6.82581042309064e-06,2.27702357737144e-05
1.0905,6.81790226143234e-06,2.2769134997353e-05
1.091,6.80992433555389e-06,2.27681533685465e-05
1.0915,6.80187772986606e-06,2.27672913943669e-05
1.092,6.79376355164356e-06,2.27665496239172e-05
1.0925,6.78558293075719e-06,2.27659286479869e-05
1.093,6.77733701940052e-06,2.27654290986917e-05
1.0935,6.76902699181124e-06,2.27650516490961e-05
1.094,6.76065404398706e-06,2.2764797012822e-05
1.0945,6.75221939339633e-06,2.27646659436406e-05
1.095,6.7437242786835e-06,2.27646592350496e-05
1.0955,6.73516995936931e-06,2.27647777198351e-05
1.096,6.72655771554595e-06,2.27650222696189e-05
1.0965,6.71788884756712e-06,2.27653937943912e-05
1.097,6.70916467573316e-06,2.27658932420289e-05
1.0975,6.70038653997122e-06,2.27665215977993e-05
1.098,6.69155579951065e-06,2.27672798838511e-05
1.0985,6.68267383255355e-06,2.27681691586902e-05
1.099,6.6737420359407e-06,2.27691905166432e-05
1.0995,6.66476182481281e-06,2.27703450873077e-05
1.1,6.65573463226722e-06,2.27716340349885e-05
1.1005,6.64666190901016e-06,2.27730585581227e-05
1.101,6.63754512300465e-06,2.27746198886911e-05
1.1015,6.62838575911396e-06,2.27763192916183e-05
1.102,6.619185318741e-06,2.27781580641604e-05
1.1025,6.60994531946345e-06,2.27801375352808e-05
1.103,6.60066729466488e-06,2.27822590650155e-05
1.1035,6.59135279316187e-06,2.27845240438265e-05
1.104,6.58200337882729e-06,2.27869338919443e-05
1.1045,6.57262063020973e-06,2.27894900587007e-05
1.105,6.56320614014926e-06,2.27921940218501e-05
1.1055,6.55376151538957e-06,2.27950472868814e-05
1.106,6.54428837618663e-06,2.27980513863208e-05
1.1065,6.53478835591387e-06,2.28012078790231e-05
1.107,6.52526310066414e-06,2.28045183494565e-05
1.1075,6.51571426884832e-06,2.28079844069761e-05
1.108,6.5061435307909e-06,2.28116076850902e-05
1.1085,6.49655256832262e-06,2.2815389840718e-05
1.109,6.48694307436995e-06,2.28193325534387e-05
1.1095,6.47731675254209e-06,2.28234375247337e-05
1.11,6.46767531671497e-06,2.28277064772207e-05
1.1105,6.45802049061286e-06,2.2832141153881e-05
1.111,6.44835400738738e-06,2.28367433172795e-05
1.1115,6.43867760919417e-06,2.28415147487788e-05
1.112,6.4289930467673e-06,2.28464572477465e-05
1.1125,6.41930207899148e-06,2.28515726307566e-05
1.113,6.40960647247225e-06,2.28568627307855e-05
1.1135,6.39990800110416e-06,2.28623293964022e-05
1.114,6.39020844563716e-06,2.28679744909537e-05
1.1145,6.38050959324131e-06,2.28737998917455e-05
1.115,6.37081323706973e-06,2.28798074892178e-05
1.1155,6.36112117582012e-06,2.28859991861168e-05
1.116,6.35143521329489e-06,2.28923768966635e-05
1.1165,6.34175715795994e-06,2.28989425457172e-05
1.117,6.33208882250229e-06,2.29056980679371e-05
1.1175,6.32243202338666e-06,2.29126454069397e-05
1.118,6.31278858041096e-06,2.29197865144548e-05
1.1185,6.30316031626108e-06,2.29271233494776e-05
1.119,6.29354905606486e-06,2.29346578774197e-05
1.1195,6.28395662694546e-06,2.29423920692575e-05
1.12,6.27438485757412e-06,2.29503279006797e-05
1.1205,6.26483557772271e-06,2.29584673512326e-05
1.121,6.25531061781581e-06,2.29668124034647e-05
1.1215,6.24581180848272e-06,2.29753650420708e-05
1.122,6.23634098010938e-06,2.29841272530346e-05
1.1225,6.22689996239041e-06,2.2993101022772e-05
1.123,6.2174905838812e-06,2.30022883372734e-05
1.1235,6.20811467155049e-06,2.30116911812467e-05
1.124,6.19877405033316e-06,2.30213115372608e-05
1.1245,6.18947054268379e-06,2.30311513848889e-05
1.125,6.18020596813059e-06,2.30412126998539e-05
1.1255,6.17098214283042e-06,2.30514974531738e-05
1.126,6.16180087912442e-06,2.30620076103089e-05
1.1265,6.15266398509492e-06,2.30727451303112e-05
1.127,6.14357326412322e-06,2.30837119649742e-05
1.1275,6.13453051444886e-06,2.30949100579861e-05
1.128,6.1255375287302e-06,2.31063413440848e-05
1.1285,6.11659609360642e-06,2.31180077482148e-05
1.129,6.10770798926128e-06,2.31299111846882e-05
1.1295,6.09887498898854e-06,2.31420535563471e-05
1.13,6.09009885875933e-06,2.31544367537304e-05
1.1305,6.08138135679143e-06,2.31670626542434e-05
1.131,6.0727242331208e-06,2.31799331213316e-05
1.1315,6.06412922917516e-06,2.31930500036572e-05
1.132,6.05559807735018e-06,2.32064151342811e-05
1.1325,6.04713250058792e-06,2.32200303298484e-05
1.133,6.03873421195801e-06,2.32338973897786e-05
1.1335,6.03040491424158e-06,2.32480180954607e-05
1.134,6.02214629951787e-06,2.32623942094527e-05
1.1345,6.01396004875402e-06,2.32770274746873e-05
1.135,6.00584783139779e-06,2.32919196136824e-05
1.1355,5.99781130497354e-06,2.33070723277569e-05
1.136,5.98985211468148e-06,2.33224872962533e-05
1.1365,5.98197189300047e-06,2.33381661757654e-05
1.137,5.97417225929425e-06,2.33541105993731e-05
1.1375,5.96645481942136e-06,2.3370322175883e-05
1.138,5.95882116534897e-06,2.33868024890764e-05
1.1385,5.95127287477038e-06,2.34035530969635e-05
1.139,5.94381151072678e-06,2.34205755310451e-05
1.1395,5.93643862123294e-06,2.34378712955818e-05
1.14,5.92915573890722e-06,2.34554418668701e-05
1.1405,5.92196438060597e-06,2.34732886925269e-05
1.141,5.91486604706227e-06,2.34914131907812e-05
1.1415,5.90786222252932e-06,2.35098167497745e-05
1.142,5.90095437442852e-06,2.35285007268688e-05
1.1425,5.89414395300221e-06,2.3547466447964e-05
1.143,5.88743239097148e-06,2.35667152068224e-05
1.1435,5.88082110319871e-06,2.35862482644036e-05
1.144,5.87431148635547e-06,2.36060668482074e-05
1.1445,5.8679049185954e-06,2.36261721516254e-05
1.145,5.86160275923245e-06,2.36465653333031e-05
1.1455,5.85540634842448e-06,2.36672475165099e-05
1.146,5.84931700686234e-06,2.36882197885199e-05
1.1465,5.8433360354645e-06,2.37094832000011e-05
1.147,5.83746471507725e-06,2.3731038764415e-05
1.1475,5.83170430618078e-06,2.37528874574261e-05
1.148,5.82605604860091e-06,2.37750302163212e-05
1.1485,5.82052116122681e-06,2.37974679394381e-05
1.149,5.81510084173467e-06,2.38202014856058e-05
1.1495,5.80979626631741e-06,2.38432316735935e-05
1.15,5.80460858942052e-06,2.38665592815708e-05
1.1505,5.79953894348405e-06,2.3890185046578e-05
1.151,5.79458843869094e-06,2.39141096640069e-05
1.1515,5.78975816272159e-06,2.39383337870923e-05
1.152,5.78504918051495e-06,2.39628580264138e-05
1.1525,5.78046253403591e-06,2.39876829494085e-05
1.153,5.77599924204928e-06,2.40128090798941e-05
1.1535,5.77166029990043e-06,2.4038236897604e-05
1.154,5.76744667930236e-06,2.40639668377313e-05
1.1545,5.76335932812964e-06,2.40899992904855e-05
1.155,5.759399170219e-06,2.41163346006591e-05
1.1555,5.75556710517665e-06,2.41429730672058e-05
1.156,5.75186400819248e-06,2.41699149428289e-05
1.1565,5.74829072986116e-06,2.4197160433582e-05
1.157,5.74484809601002e-06,2.42247096984795e-05
1.1575,5.74153690753395e-06,2.42525628491193e-05
1.158,5.73835794023728e-06,2.42807199493157e-05
1.1585,5.73531194468255e-06,2.43091810147445e-05
1.159,5.7323996460464e-06,2.43379460125978e-05
1.1595,5.72962174398251e-06,2.4367014861252e-05
1.16,5.7269789124915e-06,2.43963874299448e-05
1.1605,5.724471799798e-06,2.44260635384651e-05
1.161,5.72210102823482e-06,2.44560429568536e-05
1.1615,5.71986719413409e-06,2.44863254051138e-05
1.162,5.71777086772574e-06,2.45169105529359e-05
1.1625,5.71581259304281e-06,2.45477980194301e-05
1.163,5.71399288783412e-06,2.45789873728728e-05
1.1635,5.71231224348388e-06,2.46104781304625e-05
1.164,5.71077112493847e-06,2.46422697580882e-05
1.1645,5.70936997064032e-06,2.46743616701083e-05
1.165,5.70810919246881e-06,2.47067532291412e-05
1.1655,5.70698917568832e-06,2.47394437458664e-05
1.166,5.70601027890319e-06,2.47724324788378e-05
1.1665,5.70517283401986e-06,2.48057186343075e-05
1.167,5.70447714621585e-06,2.48393013660611e-05
1.1675,5.70392349391582e-06,2.48731797752642e-05
1.168,5.70351212877451e-06,2.49073529103202e-05
1.1685,5.70324327566657e-06,2.49418197667389e-05
1.169,5.70311713268328e-06,2.49765792870169e-05
1.1695,5.70313387113607e-06,2.50116303605289e-05
1.17,5.70329363556685e-06,2.50469718234301e-05
1.1705,5.70359654376497e-06,2.50826024585702e-05
1.171,5.70404268679098e-06,2.51185209954178e-05
1.1715,5.70463212900691e-06,2.5154726109997e-05
1.172,5.70536490811317e-06,2.51912164248346e-05
1.1725,5.70624103519195e-06,2.52279905089185e-05
1.173,5.70726049475697e-06,2.52650468776674e-05
1.1735,5.70842324480973e-06,2.53023839929117e-05
1.174,5.70972921690198e-06,2.53400002628854e-05
1.1745,5.7111783162044e-06,2.53778940422296e-05
1.175,5.71277042158148e-06,2.54160636320065e-05
1.1755,5.7145053856725e-06,2.5454507279725e-05
1.176,5.71638303497841e-06,2.54932231793777e-05
1.1765,5.71840316995475e-06,2.55322094714879e-05
1.177,5.72056556511038e-06,2.55714642431693e-05
1.1775,5.72286996911187e-06,2.56109855281953e-05
1.178,5.72531610489382e-06,2.56507713070806e-05
1.1785,5.72790366977451e-06,2.56908195071727e-05
1.179,5.73063233557727e-06,2.57311280027555e-05
1.1795,5.73350174875717e-06,2.57716946151632e-05
1.18,5.7365115305331e-06,2.58125171129053e-05
1.1805,5.73966127702521e-06,2.58535932118029e-05
1.181,5.74295055939732e-06,2.58949205751356e-05
1.1815,5.74637892400466e-06,2.59364968137992e-05
1.182,5.74994589254651e-06,2.59783194864747e-05
1.1825,5.75365096222377e-06,2.60203860998079e-05
1.183,5.75749360590142e-06,2.60626941085998e-05
1.1835,5.76147327227574e-06,2.61052409160077e-05
1.184,5.76558938604618e-06,2.61480238737575e-05
1.1845,5.76984134809187e-06,2.6191040282366e-05
1.185,5.7742285356526e-06,2.6234287391375e-05
1.1855,5.77875030251425e-06,2.62777623995946e-05
1.186,5.78340597919863e-06,2.63214624553585e-05
1.1865,5.78819487315736e-06,2.63653846567891e-05
1.187,5.79311626897027e-06,2.64095260520735e-05
1.1875,5.79816942854751e-06,2.645388363975e-05
1.188,5.80335359133597e-06,2.64984543690049e-05
1.1885,5.80866797452945e-06,2.65432351399803e-05
1.189,5.8141117732827e-06,2.65882228040915e-05
1.1895,5.81968416092918e-06,2.6633414164356e-05
1.19,5.82538428920267e-06,2.66788059757321e-05
1.1905,5.83121128846212e-06,2.67243949454678e-05
1.191,5.83716426792032e-06,2.67701777334607e-05
1.1915,5.8432423158758e-06,2.68161509526276e-05
1.192,5.84944449994811e-06,2.68623111692849e-05
1.1925,5.85576986731636e-06,2.69086549035389e-05
1.193,5.8622174449609e-06,2.69551786296866e-05
1.1935,5.86878623990807e-06,2.70018787766263e-05
1.194,5.87547523947794e-06,2.70487517282787e-05
1.1945,5.88228341153502e-06,2.7095793824018e-05
1.195,5.88920970474174e-06,2.71430013591132e-05
1.1955,5.89625304881465e-06,2.71903705851789e-05
1.196,5.90341235478335e-06,2.72378977106365e-05
1.1965,5.91068651525195e-06,2.72855789011847e-05
1.197,5.91807440466303e-06,2.73334102802809e-05
1.1975,5.92557487956401e-06,2.7381387929631e-05
1.198,5.93318677887588e-06,2.74295078896893e-05
1.1985,5.94090892416402e-06,2.74777661601683e-05
1.199,5.94874011991145e-06,2.75261587005578e-05
1.1995,5.95667915379382e-06,2.75746814306528e-05
1.2,5.96472479695666e-06,2.76233302310916e-05
1.2005,5.97287580429437e-06,2.76721009439018e-05
1.201,5.98113091473108e-06,2.77209893730574e-05
1.2015,5.98948885150325e-06,2.77699912850422e-05
1.202,5.99794832244383e-06,2.78191024094246e-05
1.2025,6.00650802026818e-06,2.7868318439439e-05
1.203,6.01516662286124e-06,2.79176350325776e-05
1.2035,6.02392279356622e-06,2.79670478111888e-05
1.204,6.03277518147459e-06,2.8016552363086e-05
1.2045,6.04172242171731e-06,2.80661442421627e-05
1.205,6.05076313575716e-06,2.81158189690167e-05
1.2055,6.05989593168218e-06,2.81655720315823e-05
1.206,6.06911940450008e-06,2.82153988857692e-05
1.2065,6.07843213643352e-06,2.82652949561104e-05
1.207,6.0878326972163e-06,2.83152556364162e-05
1.2075,6.09731964439018e-06,2.8365276290437e-05
1.208,6.10689152360249e-06,2.84153522525315e-05
1.2085,6.11654686890411e-06,2.84654788283436e-05
1.209,6.12628420304819e-06,2.85156512954846e-05
1.2095,6.13610203778918e-06,2.85658649042235e-05
1.21,6.14599887418206e-06,2.86161148781827e-05
1.2105,6.15597320288211e-06,2.86663964150406e-05
1.211,6.16602350444458e-06,2.87167046872405e-05
1.2115,6.17614824962466e-06,2.87670348427047e-05
1.212,6.1863458996773e-06,2.88173820055561e-05
1.2125,6.19661490665718e-06,2.88677412768431e-05
1.213,6.20695371371832e-06,2.89181077352727e-05
1.2135,6.21736075541368e-06,2.89684764379467e-05
1.214,6.22783445799439e-06,2.90188424211044e-05
1.2145,6.23837323970865e-06,2.90692007008702e-05
1.215,6.24897551110026e-06,2.91195462740048e-05
1.2155,6.25963967530661e-06,2.91698741186632e-05
1.216,6.27036412835624e-06,2.92201791951553e-05
1.2165,6.28114725946569e-06,2.92704564467121e-05
1.217,6.29198745133573e-06,2.9320700800255e-05
1.2175,6.30288308044685e-06,2.93709071671706e-05
1.218,6.31383251735407e-06,2.94210704440879e-05
1.2185,6.32483412698073e-06,2.94711855136603e-05
1.219,6.33588626891156e-06,2.95212472453504e-05
1.2195,6.34698729768472e-06,2.95712504962191e-05
1.22,6.35813556308288e-06,2.96211901117174e-05
1.2205,6.36932941042317e-06,2.96710609264815e-05
1.221,6.38056718084616e-06,2.97208577651308e-05
1.2215,6.39184721160365e-06,2.9770575443069e-05
1.222,6.40316783634516e-06,2.98202087672882e-05
1.2225,6.41452738540344e-06,2.98697525371748e-05
1.223,6.42592418607836e-06,2.99192015453184e-05
1.2235,6.43735656291987e-06,2.99685505783233e-05
1.224,6.44882283800926e-06,3.00177944176216e-05
1.2245,6.46032133123926e-06,3.00669278402884e-05
1.225,6.47185036059263e-06,3.01159456198601e-05
1.2255,6.48340824241928e-06,3.01648425271525e-05
1.226,6.4949932917119e-06,3.02136133310822e-05
1.2265,6.50660382238011e-06,3.0262252799489e-05
1.227,6.51823814752303e-06,3.03107556999601e-05
1.2275,6.52989457970028e-06,3.03591168006544e-05
1.228,6.54157143120137e-06,3.04073308711297e-05
1.2285,6.5532670143135e-06,3.04553926831694e-05
1.229,6.56497964158768e-06,3.0503297011611e-05
1.2295,6.57670762610323e-06,3.05510386351751e-05
1.23,6.58844928173058e-06,3.05986123372947e-05
1.2305,6.60020292339235e-06,3.06460129069454e-05
1.231,6.61196686732282e-06,3.06932351394757e-05
1.2315,6.62373943132557e-06,3.07402738374374e-05
1.232,6.63551893502945e-06,3.0787123811416e-05
1.2325,6.64730370014282e-06,3.08337798808616e-05
1.233,6.65909205070605e-06,3.08802368749182e-05
1.2335,6.67088231334223e-06,3.09264896332541e-05
1.234,6.68267281750617e-06,3.09725330068907e-05
1.2345,6.69446189573167e-06,3.10183618590306e-05
1.235,6.70624788387697e-06,3.10639710658858e-05
1.2355,6.71802912136848e-06,3.11093555175032e-05
1.236,6.72980395144286e-06,3.1154510118591e-05
1.2365,6.74157072138712e-06,3.11994297893411e-05
1.237,6.75332778277728e-06,3.12441094662527e-05
1.2375,6.76507349171508e-06,3.1288544102952e-05
1.238,6.77680620906302e-06,3.13327286710112e-05
1.2385,6.78852430067778e-06,3.1376658160765e-05
1.239,6.80022613764178e-06,3.1420327582125e-05
1.2395,6.8119100964932e-06,3.1463731965391e-05
1.24,6.82357455945423e-06,3.15068663620607e-05
1.2405,6.83521791465766e-06,3.15497258456361e-05
1.241,6.84683855637189e-06,3.15923055124264e-05
1.2415,6.85843488522413e-06,3.16346004823478e-05
1.242,6.87000530842221e-06,3.16766058997211e-05
1.2425,6.88154823997455e-06,3.17183169340639e-05
