Time_s,BCL_Filtered,BCC_Filtered
20,4.10882202020552e-07,1.3719675330823e-07
20.0005,3.54014878118001e-07,3.11499180577267e-06
20.001,2.83076518089836e-07,6.27813073854098e-06
20.0015,3.21559470037463e-07,9.0942206618666e-06
20.002,5.65142057991592e-07,1.06638800563733e-05
20.0025,1.02991152960602e-06,1.0478435098077e-05
20.003,2.25741719835575e-06,8.51064603673187e-06
20.0035,5.83238156785522e-06,5.2053064635168e-06
20.004,1.33721794961212e-05,1.77984096464846e-06
20.0045,2.45087442268095e-05,-1.40156412371311e-07
20.005,3.63769193506203e-05,5.4724111609098e-08
20.0055,4.56335723419718e-05,8.89515497754317e-07
20.006,5.09733579725831e-05,-5.86306628794941e-07
20.0065,5.36399542978081e-05,-7.03284779300889e-06
20.007,5.57052478264447e-05,-1.93776350239919e-05
20.0075,5.79975629965042e-05,-3.65115611229228e-05
20.008,5.95278796045376e-05,-5.59984000460316e-05
20.0085,5.84625726405564e-05,-7.52392724414865e-05
20.009,5.33412935099967e-05,-9.23846544931184e-05
20.0095,4.37897987239527e-05,-0.000106597208110023
20.01,3.09309124330224e-05,-0.000117849571876232
20.0105,1.73514376670482e-05,-0.000126297678605649
20.011,6.00126545181014e-06,-0.000131254119165252
20.0115,-1.64068819665724e-06,-0.000131141841222172
20.012,-6.45700303828786e-06,-0.000125539360870713
20.0125,-1.04956096540129e-05,-0.000116785135455545
20.013,-1.49210275237672e-05,-0.000107927165406995
20.0135,-1.93727713446301e-05,-9.9365655992993e-05
20.014,-2.29119387001511e-05,-8.90833865603766e-05
20.0145,-2.49164918781237e-05,-7.55205582583037e-05
20.015,-2.54573371839001e-05,-5.83423728056947e-05
20.0155,-2.56856210071378e-05,-3.71743223823113e-05
20.016,-2.73929646623578e-05,-1.19338844767348e-05
20.0165,-3.10110986126903e-05,1.55382823606818e-05
20.017,-3.4242918028608e-05,4.15799057053391e-05
20.0175,-3.38294853236748e-05,6.23033075482317e-05
20.018,-2.88214624356379e-05,7.43128321590964e-05
20.0185,-2.13846065803442e-05,7.47207949446353e-05
20.019,-1.42848356473108e-05,6.23823569736945e-05
20.0195,-8.18114982555822e-06,3.98778963680323e-05
20.02,-1.71406019880917e-06,1.3229543819031e-05
20.0205,6.08140579586797e-06,-1.16270888171661e-05
20.021,1.41907977772824e-05,-3.20689391359401e-05
20.0215,2.0909918014783e-05,-4.80704803792742e-05
20.022,2.6084499047321e-05,-5.93030099681121e-05
20.0225,3.07090150594718e-05,-6.47845434613612e-05
20.023,3.43000532589196e-05,-6.53289189124912e-05
20.0235,3.46545572628964e-05,-6.38059384270967e-05
20.024,3.1241226222949e-05,-6.11477396789733e-05
20.0245,2.690066217549e-05,-5.32874065183862e-05
20.025,2.42545782581601e-05,-3.42019734547842e-05
20.0255,2.16360826795573e-05,-2.53044920553125e-06
20.026,1.4920994009037e-05,3.52303387139279e-05
20.0265,3.35614621661528e-06,6.84418397201471e-05
20.027,-8.45083593781407e-06,8.98612510456155e-05
20.0275,-1.5302221233066e-05,0.000100015644372601
20.028,-1.69425693789841e-05,0.000104286073991466
20.0285,-1.75380884027794e-05,0.000106626037333535
20.029,-2.03756171976707e-05,0.000107333061251491
20.0295,-2.46749731528873e-05,0.000106180485080258
20.03,-2.7591675574143e-05,0.000105074334010242
20.0305,-2.78546228001104e-05,0.000105953699425058
20.031,-2.67365165131336e-05,0.000107341779660083
20.0315,-2.61229605639815e-05,0.000105711235147007
20.032,-2.63367800519521e-05,0.000100956397539257
20.0325,-2.60366525524361e-05,9.82140640895783e-05
20.033,-2.42393996330293e-05,0.000102179391873375
20.0335,-2.20391062636038e-05,0.000110566590386088
20.034,-2.15476684375864e-05,0.00011558239802183
20.0345,-2.30187156397912e-05,0.00011216300662478
20.035,-2.39405836715255e-05,0.000102793737558919
20.0355,-2.15785949353183e-05,9.3431190825972e-05
20.036,-1.5748538237945e-05,8.66600936317609e-05
20.0365,-8.3625285629804e-06,8.05422010186649e-05
20.037,-9.14239178230747e-07,7.26647486880384e-05
20.0375,6.47198630069635e-06,6.26151720115434e-05
20.038,1.38441769012974e-05,5.04571450794173e-05
20.0385,2.05562180557648e-05,3.51217822138977e-05
20.039,2.57986492816802e-05,1.54450601155942e-05
20.0395,2.92089785711266e-05,-8.22296183479937e-06
20.04,3.07722686384396e-05,-3.42416949533508e-05
20.0405,3.0597759489055e-05,-6.0946189842898e-05
20.041,2.8918752408893e-05,-8.71108606286514e-05
20.0415,2.61276292313957e-05,-0.000111561382944774
20.042,2.28840725887889e-05,-0.0001331145331692
20.0425,2.02506646382861e-05,-0.000150905802684609
20.043,1.93421447821625e-05,-0.000163947207265528
20.0435,2.03478521808277e-05,-0.000170473179820422
20.044,2.17955250968277e-05,-0.000169554923759838
20.0445,2.11276952221931e-05,-0.000164110115079348
20.045,1.66283369705439e-05,-0.000160016078089758
20.0455,9.24138695768357e-06,-0.000160206388026169
20.046,2.22440859363398e-06,-0.000160883910882775
20.0465,-1.701500756462e-06,-0.000155182959720675
20.047,-3.05359415889756e-06,-0.000139402906070874
20.0475,-5.15168107879657e-06,-0.000114275293291191
20.048,-1.09800774800514e-05,-8.20494675047156e-05
20.0485,-2.05652333132998e-05,-4.55588719505469e-05
20.049,-3.0977098942244e-05,-9.98858985724466e-06
20.0495,-3.84439957072337e-05,1.81323174261754e-05
20.05,-4.08735062966941e-05,3.61197294177226e-05
20.0505,-3.90169846110932e-05,4.75779621585995e-05
20.051,-3.53150217689267e-05,5.70552861236938e-05
20.0515,-3.15258320250567e-05,6.3591042143292e-05
20.052,-2.7536053349989e-05,6.337788100633e-05
20.0525,-2.21599183614681e-05,5.86827100807245e-05
20.053,-1.45219489381315e-05,5.90201944252391e-05
20.0535,-4.85327659437836e-06,7.05148582588586e-05
20.054,5.22504989906264e-06,8.7264706113227e-05
20.0545,1.3095597094927e-05,9.68248960691706e-05
20.055,1.67379722373207e-05,9.27921384752287e-05
20.0555,1.65652587020051e-05,7.92791033145012e-05
20.056,1.53032956167072e-05,6.44636766872598e-05
20.0565,1.55408695605962e-05,5.30250724210191e-05
20.057,1.75171752071774e-05,4.46626561816775e-05
20.0575,1.95201142506503e-05,3.67914492050383e-05
20.058,2.01203663994354e-05,2.72796581983521e-05
20.0585,1.95846054483199e-05,1.6295786157409e-05
20.059,1.92022965253884e-05,6.90723542808832e-06
20.0595,1.9699286754711e-05,2.9963317713464e-06
20.06,2.06220411948503e-05,5.71956483398942e-06
20.0605,2.10952450389156e-05,1.25361857874318e-05
20.061,2.05959431378053e-05,1.95066941118101e-05
20.0615,1.87505437604271e-05,2.32870114359065e-05
20.062,1.5026744161961e-05,2.16612857216903e-05
20.0625,9.26961939478623e-06,1.48254249741637e-05
20.063,2.16065421108876e-06,6.30606167081257e-06
20.0635,-5.47383037331194e-06,-1.1123480593005e-07
20.064,-1.34962282713802e-05,-4.88326977377736e-06
20.0645,-2.20148216016677e-05,-1.15773825818526e-05
20.065,-3.04034324418939e-05,-2.05986400194301e-05
20.0655,-3.73498734214625e-05,-2.6723595065547e-05
20.066,-4.17037184964745e-05,-2.45401883054578e-05
20.0665,-4.29169173790058e-05,-1.4792101417035e-05
20.067,-4.10275456973933e-05,-3.39959196400415e-06
20.0675,-3.66805911222764e-05,5.21059119723982e-06
20.068,-3.08704881195264e-05,1.15471779640697e-05
20.0685,-2.42576828972555e-05,1.73743065869176e-05
20.069,-1.69457352138682e-05,2.10722064625521e-05
20.0695,-9.06835066150738e-06,1.88116873236733e-05
20.07,-1.14895967790881e-06,9.36744540076693e-06
20.0705,6.29309610751059e-06,-4.15623146257018e-06
20.071,1.30096880143527e-05,-1.70497903135684e-05
20.0715,1.87665883731668e-05,-2.58689667990488e-05
20.072,2.32630293194128e-05,-2.88838799491077e-05
20.0725,2.62871088825773e-05,-2.61314528302305e-05
20.073,2.756886431858e-05,-2.06385314016056e-05
20.0735,2.67629344230909e-05,-1.80790766493346e-05
20.074,2.40304630632048e-05,-2.26664337592795e-05
20.0745,2.04075233278224e-05,-3.3284625458662e-05
20.075,1.75096011659086e-05,-4.51500115689046e-05
20.0755,1.71231756276797e-05,-5.514113715998e-05
20.076,2.03000028160025e-05,-6.42219707165901e-05
20.0765,2.56517463288927e-05,-7.47548164318743e-05
20.077,2.92246857335223e-05,-8.64378987669542e-05
20.0775,2.78705529077168e-05,-9.48234344544923e-05
20.078,2.27852316003859e-05,-9.34181901964793e-05
20.0785,1.82607992613907e-05,-7.8042194935935e-05
20.079,1.67201314292031e-05,-5.01967634014611e-05
20.0795,1.61263053906902e-05,-1.62119861035036e-05
20.08,1.24871388927441e-05,1.69238113163885e-05
20.0805,3.88670605693748e-06,4.4720165356481e-05
20.081,-8.17642741081205e-06,6.56813949337096e-05
20.0815,-2.03528588305081e-05,8.11253923245898e-05
20.082,-2.96345039765575e-05,9.45907628245636e-05
20.0825,-3.46095175226828e-05,0.000109388023123237
20.083,-3.56309508870343e-05,0.000126041915910162
20.0835,-3.42430128426458e-05,0.000142609851000643
20.084,-3.21708600148608e-05,0.00015650803785556
20.0845,-3.04147903428264e-05,0.000164859464912182
20.085,-2.90359076295976e-05,0.000164411393460503
20.0855,-2.7440517408664e-05,0.000152989760065286
20.086,-2.45883382200683e-05,0.0001306799003781
20.0865,-1.93122288876934e-05,9.92588935788598e-05
20.087,-1.11076298357573e-05,6.20517063647851e-05
20.0875,-7.57999054310097e-07,2.43684573692041e-05
20.088,9.98460643945482e-06,-8.90120331532917e-06
20.0885,1.93303890681541e-05,-3.74500162742715e-05
20.089,2.61878470648742e-05,-6.5143735092205e-05
20.0895,3.04154649663675e-05,-9.4354158588438e-05
20.09,3.24830219655844e-05,-0.000122620725673094
20.0905,3.25939361108592e-05,-0.000145855501388416
20.091,3.03153211786938e-05,-0.000162585005996145
20.0915,2.56849567483994e-05,-0.000173319744022966
20.092,2.03105236050394e-05,-0.000177703983902506
20.0925,1.61356117596325e-05,-0.000174684796128588
20.093,1.3157166828072e-05,-0.00016425541045242
20.0935,9.7731798880654e-06,-0.000146635499006254
20.094,5.53347470548363e-06,-0.000120674511789189
20.0945,1.91707402752762e-06,-8.584059040598e-05
20.095,-2.35379601208843e-07,-4.58673081182437e-05
20.0955,-2.45434434222867e-06,-7.7069195058191e-06
20.096,-6.40917125934855e-06,2.46851398257781e-05
20.0965,-1.08568201075224e-05,5.36738305850503e-05
20.097,-1.2667240123042e-05,8.26887547670592e-05
20.0975,-1.09885710387285e-05,0.000108993551335441
20.098,-8.72057271944882e-06,0.000125170631666594
20.0985,-9.03496502869547e-06,0.000127662497833716
20.099,-1.16386807555125e-05,0.000120390465493097
20.0995,-1.35754965900688e-05,0.000109092947563624
20.1,-1.29509161891661e-05,9.43908348149585e-05
20.1005,-1.07312394683339e-05,7.13767812365088e-05
20.101,-9.20373376100659e-06,3.54277692427103e-05
20.1015,-9.65248873703819e-06,-1.13511247025413e-05
20.102,-1.16309145575512e-05,-5.92114648651865e-05
20.1025,-1.37897726413667e-05,-9.6924386408078e-05
20.103,-1.49595089264688e-05,-0.000119198847952173
20.1035,-1.47230236840124e-05,-0.00012834134073711
20.104,-1.34557614377832e-05,-0.000130189361349357
20.1045,-1.18628403836801e-05,-0.000129574860733864
20.105,-1.02817783693818e-05,-0.000128195661129274
20.1055,-8.50545187570032e-06,-0.000124130061045008
20.106,-6.31999058766217e-06,-0.00011283328004795
20.1065,-3.89005732230665e-06,-9.04822112841158e-05
20.107,-1.37679168423304e-06,-5.78253534755843e-05
20.1075,1.64904004451037e-06,-2.03406988194759e-05
20.108,6.0062888044308e-06,1.62068455910541e-05
20.1085,1.17934937136081e-05,5.03572891912544e-05
20.109,1.76613509107543e-05,8.50894210452462e-05
20.1095,2.17278982663797e-05,0.000123673965224281
20.11,2.32176142317194e-05,0.000165064264952621
20.1105,2.26951333840917e-05,0.000202437232601711
20.111,2.07829115621708e-05,0.00022617930326259
20.1115,1.73896149128128e-05,0.000229678802101945
20.112,1.24720972997431e-05,0.000213768871187646
20.1125,7.04087422376212e-06,0.000186087337002575
20.113,2.76665187431829e-06,0.000155912075783014
20.1135,3.31610503546253e-07,0.000129010805493609
20.114,-1.59719857740875e-06,0.000106173042949959
20.1145,-5.25758349495992e-06,8.51681061543888e-05
20.115,-1.14129983173076e-05,6.37106935654265e-05
20.1155,-1.83312965536206e-05,4.13209340228474e-05
20.116,-2.34102099728155e-05,1.90398545970052e-05
20.1165,-2.56080936208857e-05,-2.32192155290176e-06
20.117,-2.59708879713959e-05,-2.33484440444381e-05
20.1175,-2.60453115613317e-05,-4.54549916839858e-05
20.118,-2.62439564799686e-05,-6.94548284588133e-05
20.1185,-2.56851723646705e-05,-9.46765393679296e-05
20.119,-2.32682320320163e-05,-0.000119255890492799
20.1195,-1.87733093475112e-05,-0.000141176999846879
20.12,-1.29401271579841e-05,-0.00015904487825078
20.1205,-6.69683459486061e-06,-0.000172071167121533
20.121,-6.58200963364145e-07,-0.00017957609161943
20.1215,4.88872505117206e-06,-0.000180274211613993
20.122,1.02431305072348e-05,-0.00017176299623121
20.1225,1.63688989586138e-05,-0.000151518994159566
20.123,2.37526890634261e-05,-0.0001196638686866
20.1235,3.11568027576018e-05,-8.05212772114961e-05
20.124,3.6454527203992e-05,-4.01167080620266e-05
20.1245,3.88693655327183e-05,-2.32550425835218e-06
20.125,3.95640890446525e-05,3.09050708851267e-05
20.1255,3.97582135896855e-05,5.61556068205091e-05
20.126,3.89377407757627e-05,6.90706117513112e-05
20.1265,3.53966441915958e-05,7.02312630129471e-05
20.127,2.83848995588053e-05,6.74962172354313e-05
20.1275,1.9364033306223e-05,6.8808544937229e-05
20.128,1.08499395240478e-05,7.35226183773905e-05
20.1285,4.11834314412586e-06,7.40309166173824e-05
20.129,-1.39796854127734e-06,6.56300003617334e-05
20.1295,-6.46431762604991e-06,5.12518918071055e-05
20.13,-1.08661095006951e-05,3.58207919464868e-05
20.1305,-1.44504827896262e-05,1.98353695358955e-05
20.131,-1.82942551100281e-05,1.16660799144416e-06
20.1315,-2.35669090271488e-05,-1.90343790889844e-05
20.132,-2.95041578227894e-05,-3.53362589931358e-05
20.1325,-3.36527280552775e-05,-4.28575755586415e-05
20.133,-3.43041107836872e-05,-4.15163473115927e-05
20.1335,-3.1878520310955e-05,-3.50857755944937e-05
20.134,-2.77465063076926e-05,-2.68508372590543e-05
20.1345,-2.26452269633557e-05,-1.71325523888139e-05
20.135,-1.68103095337996e-05,-4.9503815872711e-06
20.1355,-1.08409917059913e-05,9.41789581437582e-06
20.136,-5.45600797431477e-06,2.4417202080255e-05
20.1365,-6.841570405361e-07,3.83735174408939e-05
20.137,3.83305171661012e-06,4.92530729208686e-05
20.1375,7.84052124796204e-06,5.43711117127944e-05
20.138,1.06436272476945e-05,5.23028252737961e-05
20.1385,1.2370082854524e-05,4.49946551635042e-05
20.139,1.42064539081088e-05,3.67051920504471e-05
20.1395,1.70257255556506e-05,3.07012579721101e-05
20.14,2.02985367766932e-05,2.71856316897799e-05
20.1405,2.26141860406736e-05,2.36644246395236e-05
20.141,2.29764887357461e-05,1.70338227136346e-05
20.1415,2.15228201569884e-05,6.24810855515452e-06
20.142,1.91946858252042e-05,-6.87913897188642e-06
20.1425,1.67860232671382e-05,-2.01222428729973e-05
20.143,1.4382973116601e-05,-3.31016060201088e-05
20.1435,1.18330239176254e-05,-4.55142499120262e-05
20.144,9.51469848375209e-06,-5.43160615020675e-05
20.1445,8.13215207612968e-06,-5.55215132770376e-05
20.145,7.62764519523642e-06,-4.88850422853039e-05
20.1455,6.80853743794824e-06,-3.81300723403205e-05
20.146,4.47783412530535e-06,-2.56694794749345e-05
20.1465,5.89211960128636e-07,-9.56259020865026e-06
20.147,-4.21666419001893e-06,1.22004926712448e-05
20.1475,-9.85878557972021e-06,3.556241285549e-05
20.148,-1.67939236700092e-05,5.11331238009131e-05
20.1485,-2.46630569208836e-05,5.21270644327629e-05
20.149,-3.15976340006385e-05,4.09506798003339e-05
20.1495,-3.54092704788202e-05,2.71529688092916e-05
20.15,-3.55752415286636e-05,1.89506520323175e-05
20.1505,-3.38611861632635e-05,1.72216370675105e-05
20.151,-3.26622044286402e-05,1.72139820727492e-05
20.1515,-3.26021240385403e-05,1.42712926557725e-05
20.152,-3.1991975397664e-05,6.82402720668692e-06
20.1525,-2.86829295639878e-05,-4.6786707797151e-06
20.153,-2.20220151013978e-05,-1.89134953367419e-05
20.1535,-1.30243986855172e-05,-3.28463412029007e-05
20.154,-3.48962274885703e-06,-4.18778617070012e-05
20.1545,4.75232457561017e-06,-4.32015444201222e-05
20.155,1.0564941516387e-05,-3.88515439257832e-05
20.1555,1.40467040143415e-05,-3.40828190602545e-05
20.156,1.61740501935263e-05,-3.30012521164314e-05
20.1565,1.80034273597849e-05,-3.64460414480597e-05
20.157,2.03411990828962e-05,-4.23547579842031e-05
20.1575,2.341863263458e-05,-4.57943414032421e-05
20.158,2.61986158646912e-05,-3.99349532628341e-05
20.1585,2.67431537161365e-05,-2.08772433409407e-05
20.159,2.43855888338277e-05,7.31486849885263e-06
20.1595,2.12285614390572e-05,3.49436742495514e-05
20.16,2.03017676967191e-05,5.61450853125964e-05
20.1605,2.20304739643427e-05,7.48602500525478e-05
20.161,2.33091214927295e-05,9.87220109059413e-05
20.1615,2.03794475940645e-05,0.000126808651979584
20.162,1.23322287468796e-05,0.000146744065756244
20.1625,1.92236105399138e-06,0.000146800327060732
20.163,-6.54703713656865e-06,0.000129754503965393
20.1635,-1.03210639825762e-05,0.000111670458322437
20.164,-1.00734421775225e-05,0.000105847475612206
20.1645,-9.1743409405566e-06,0.000108911753985634
20.165,-1.07411713266411e-05,0.000103405198665065
20.1655,-1.495850889476e-05,7.37445499840276e-05
20.166,-1.91610334610798e-05,1.94950462949343e-05
20.1665,-2.05060344114133e-05,-4.60441098297381e-05
20.167,-1.85947921024563e-05,-0.000108754724781859
20.1675,-1.56582540623087e-05,-0.000164242749250837
20.168,-1.43313745413123e-05,-0.000215763926894422
20.1685,-1.53202218427081e-05,-0.000263659285003025
20.169,-1.72148409755272e-05,-0.000300271538724972
20.1695,-1.81297994304538e-05,-0.000316937332734547
20.17,-1.68945787192424e-05,-0.000313636014009316
20.1705,-1.29040069774022e-05,-0.00029867946857143
20.171,-6.03283596907481e-06,-0.000279263172223022
20.1715,2.77337782953537e-06,-0.000254991387997465
20.172,1.17432224012911e-05,-0.000221726824153804
20.1725,1.98674038305225e-05,-0.000179913109604093
20.173,2.7734177255103e-05,-0.000136207008666664
20.1735,3.6129257092402e-05,-9.56999068104623e-05
20.174,4.40120316694911e-05,-5.42578784691085e-05
20.1745,4.85794613449557e-05,-1.45644866063849e-06
20.175,4.7817246961897e-05,6.78584218501516e-05
20.1755,4.26482340281798e-05,0.000146082544458972
20.176,3.56936198442342e-05,0.000217803194058897
20.1765,2.80740939313353e-05,0.000271474190993947
20.177,1.87647803747175e-05,0.000305145799989801
20.1775,7.36948933583646e-06,0.00032179017863635
20.178,-3.97953007895928e-06,0.000322590151999207
20.1785,-1.23835739893475e-05,0.000307434257363534
20.179,-1.68693110378476e-05,0.00028014840494964
20.1795,-1.84405365421645e-05,0.000248740103550883
20.18,-1.824285418199e-05,0.000218739973907199
20.1805,-1.68920108216564e-05,0.000188773620587334
20.181,-1.54458617540208e-05,0.000154818189452861
20.1815,-1.57301024354315e-05,0.000117056220610077
20.182,-1.88685862594285e-05,8.00862708882958e-05
20.1825,-2.38651599808374e-05,4.77772752948544e-05
20.183,-2.83313591647998e-05,2.09162320806653e-05
20.1835,-3.05780436077382e-05,-7.71818621151723e-07
20.184,-3.05978955725611e-05,-1.76799496840778e-05
20.1845,-2.92909938531376e-05,-3.20382655386797e-05
20.185,-2.74715617279546e-05,-4.79749730742671e-05
20.1855,-2.55838340424704e-05,-6.81715119053487e-05
20.186,-2.35662481326842e-05,-9.09052841700351e-05
20.1865,-2.0720268209395e-05,-0.000110979246780171
20.187,-1.62640155444647e-05,-0.000123663805975485
20.1875,-1.02789129774232e-05,-0.00012792205093243
20.188,-3.67234072953942e-06,-0.000125740752801008
20.1885,3.0345982766568e-06,-0.000118075579606029
20.189,1.03115157831671e-05,-0.000102236496181053
20.1895,1.83832197721913e-05,-7.51247790089518e-05
20.19,2.57093447787496e-05,-3.96316262733871e-05
20.1905,2.9625560695445e-05,-5.60467649178085e-06
20.191,2.8812923303026e-05,1.77279412830398e-05
20.1915,2.46285524675165e-05,2.90594242518517e-05
20.192,1.96949986413837e-05,3.2815467891272e-05
20.1925,1.55831185681575e-05,3.19050562828404e-05
20.193,1.22835944334242e-05,2.64192049465756e-05
20.1935,9.62117354229248e-06,1.83206664487724e-05
20.194,8.30673086308808e-06,1.25595118486019e-05
20.1945,9.02820271506695e-06,1.21690264244862e-05
20.195,1.09241040878401e-05,1.5091774615041e-05
20.1955,1.18838316718284e-05,1.71058873174106e-05
20.196,1.05110961006604e-05,1.58844283350098e-05
20.1965,7.11296500878722e-06,1.12333838569611e-05
20.197,2.67685268218764e-06,3.61724451307066e-06
20.1975,-2.30343963666367e-06,-5.50195245585659e-06
20.198,-7.74845279043933e-06,-1.32655904337327e-05
20.1985,-1.35046675257897e-05,-1.78419202189644e-05
20.199,-1.92967901584534e-05,-2.09525444816845e-05
20.1995,-2.46643085476904e-05,-2.62776424647185e-05
20.2,-2.87516379695084e-05,-3.57707579808811e-05
20.2005,-3.07176151751152e-05,-4.86840153221966e-05
20.201,-3.05948301694665e-05,-6.2882898810392e-05
20.2015,-2.91945141157829e-05,-7.53172915587634e-05
20.202,-2.68829863918183e-05,-8.24166227552462e-05
20.2025,-2.30295375863717e-05,-8.24078009275031e-05
20.203,-1.70442843509058e-05,-7.72380379150243e-05
20.2035,-9.44496374060823e-06,-7.07097935065368e-05
20.204,-1.44938067890238e-06,-6.45247094654164e-05
20.2045,6.08154347872533e-06,-5.71867067958153e-05
20.205,1.2802101602861e-05,-4.7112636244292e-05
20.2055,1.82721302494619e-05,-3.57595027472057e-05
20.206,2.1854826730877e-05,-2.64460150756827e-05
20.2065,2.33841127497865e-05,-2.03104880849842e-05
20.207,2.35109125708626e-05,-1.48876709216155e-05
20.2075,2.31205119326136e-05,-7.10779487795038e-06
20.208,2.26133771123682e-05,3.6587432281216e-06
20.2085,2.18139964130961e-05,1.63479774180938e-05
20.209,2.02505524653207e-05,3.05788662714234e-05
20.2095,1.75163622438039e-05,4.64464605296222e-05
20.21,1.37843819598873e-05,6.21777478945867e-05
20.2105,9.9645680256817e-06,7.40152885217329e-05
20.211,6.94991561105299e-06,7.95909280776779e-05
20.2115,4.85783474894162e-06,8.03027469245649e-05
20.212,3.47383327543585e-06,7.90016236295454e-05
20.2125,3.086625594611e-06,7.6090330246173e-05
20.213,4.07785464808849e-06,6.93808026173291e-05
20.2135,5.74858225109037e-06,5.74004642094901e-05
20.214,6.35593064051413e-06,4.14523350107882e-05
20.2145,4.66125848965129e-06,2.44051804908033e-05
20.215,1.08981837609689e-06,8.56851338557485e-06
20.2155,-2.93789413444085e-06,-4.82721514252303e-06
20.216,-6.60190044966701e-06,-1.49051708788668e-05
20.2165,-1.02375667081121e-05,-2.10115429121378e-05
20.217,-1.43286753676692e-05,-2.35624000832605e-05
20.2175,-1.83028609459635e-05,-2.44948208743531e-05
20.218,-2.05480712648928e-05,-2.63058261201272e-05
20.2185,-1.96626943282332e-05,-3.02012191609298e-05
20.219,-1.57447687693186e-05,-3.49057084552975e-05
20.2195,-1.0446314712234e-05,-3.7582778498354e-05
20.22,-5.64487238653526e-06,-3.64467327416875e-05
20.2205,-2.00442848544595e-06,-3.22278255051836e-05
20.221,1.12958469843083e-06,-2.66206284163111e-05
20.2215,4.44437447402637e-06,-2.01798680261782e-05
20.222,7.34863913805324e-06,-1.30622225680462e-05
20.2225,8.0223425871782e-06,-7.08786037159584e-06
20.223,4.99609341183815e-06,-4.86086548221311e-06
20.2235,-9.77278942440665e-07,-6.3707832621198e-06
20.224,-6.6207387185233e-06,-8.08539106994084e-06
20.2245,-8.23320787479301e-06,-6.42580992604009e-06
20.225,-4.56580893827744e-06,-1.45243193687786e-06
20.2255,2.4204113777836e-06,3.7902854079576e-06
20.226,9.64477914312976e-06,7.44409613862503e-06
20.2265,1.53562423133087e-05,1.14312774392805e-05
20.227,1.94812320091576e-05,1.92707619471043e-05
20.2275,2.23333995403421e-05,3.1692071758987e-05
20.228,2.37169430859366e-05,4.51193440753243e-05
20.2285,2.31525772464113e-05,5.44669769498121e-05
20.229,2.04492474343482e-05,5.70855200311412e-05
20.2295,1.59990818196536e-05,5.42463442292883e-05
20.23,1.0727691264981e-05,4.9307355682418e-05
20.2305,5.57211554195363e-06,4.44514220010184e-05
20.231,6.78516358611583e-07,3.89679904837736e-05
20.2315,-4.71813063294509e-06,3.06521956937923e-05
20.232,-1.12795383572861e-05,1.87124965840748e-05
20.2325,-1.85656181115071e-05,4.93736791462706e-06
20.233,-2.52478911758075e-05,-7.89878265117539e-06
20.2335,-3.00306252527188e-05,-1.81729846988285e-05
20.234,-3.22243637676805e-05,-2.59784517956911e-05
20.2345,-3.19034400051593e-05,-3.24118091042257e-05
20.235,-2.98104426918302e-05,-3.86201679413045e-05
20.2355,-2.68208577206768e-05,-4.49272815900197e-05
20.236,-2.32788085692463e-05,-5.04434619613176e-05
20.2365,-1.88298427513403e-05,-5.36609371785635e-05
20.237,-1.28102817665205e-05,-5.3681268575699e-05
20.2375,-5.00760865213321e-06,-5.1134224315178e-05
20.238,3.50121264099161e-06,-4.80308750178326e-05
20.2385,1.03851515184375e-05,-4.63562876891632e-05
20.239,1.36137902521049e-05,-4.63144528743691e-05
20.2395,1.3207001155914e-05,-4.59914033073876e-05
20.24,1.10299080450403e-05,-4.30440778820405e-05
20.2405,8.85075692408827e-06,-3.66023410133561e-05
20.241,7.2324365433813e-06,-2.73491055443892e-05
20.2415,6.27177468832327e-06,-1.62841988610094e-05
20.242,6.34426636065503e-06,-3.8369044602992e-06
20.2425,7.63474011897075e-06,1.06493003916698e-05
20.243,9.61823896480853e-06,2.91595464516607e-05
20.2435,1.14867074145429e-05,5.31802043127494e-05
20.244,1.2787169515329e-05,8.00351458095155e-05
20.2445,1.33708564022706e-05,0.000102483487961991
20.245,1.29034127502156e-05,0.000114415319979436
20.2455,1.0848521247148e-05,0.000116668884592335
20.246,7.21421732327552e-06,0.00011561496557617
20.2465,2.98218830409952e-06,0.000116412723743345
20.247,-8.51425939179897e-07,0.000118844316229698
20.2475,-4.54186016588316e-06,0.000118990339187792
20.248,-9.11277932566659e-06,0.000113314993701519
20.2485,-1.4547045077746e-05,0.00010098893543579
20.249,-1.92958790264364e-05,8.34141335340825e-05
20.2495,-2.18884497922231e-05,6.23341079938231e-05
20.25,-2.2296221383461e-05,3.85829873344967e-05
20.2505,-2.12615292052373e-05,1.27142418632647e-05
20.251,-1.90484800650183e-05,-1.36085375786638e-05
20.2515,-1.57036308286627e-05,-3.80289902437113e-05
20.252,-1.19769808875507e-05,-5.96376928167595e-05
20.2525,-8.708800240578e-06,-7.92886413507716e-05
20.253,-5.27289668430386e-06,-9.68059706428055e-05
20.2535,1.36938189345185e-07,-0.000109213454594716
20.254,8.02616830413394e-06,-0.000113554168371542
20.2545,1.61573445847325e-05,-0.000111122593401047
20.255,2.15371326942571e-05,-0.000107004480132822
20.2555,2.36267467420985e-05,-0.00010468228555538
20.256,2.45566831454657e-05,-0.000102486832456578
20.2565,2.60597536585503e-05,-9.68800089934486e-05
20.257,2.7389908373876e-05,-8.85163048425836e-05
20.2575,2.68412111448118e-05,-8.27598178695411e-05
20.258,2.42658647047911e-05,-8.31328778196778e-05
20.2585,2.11394505233832e-05,-8.54904129857282e-05
20.259,1.86330736949305e-05,-8.04830925134079e-05
20.2595,1.6451685989727e-05,-6.23133116722048e-05
20.26,1.35225252333695e-05,-3.45396586080519e-05
20.2605,9.33716465869081e-06,-6.98854908326863e-06
20.261,4.43190941214893e-06,1.26604725340727e-05
20.2615,-3.52869349145669e-07,2.39100148265303e-05
20.262,-4.77955230360628e-06,3.05821121614024e-05
20.2625,-8.92171031547029e-06,3.43683379294949e-05
20.263,-1.20416744906673e-05,3.30071229240029e-05
20.2635,-1.26827178806259e-05,2.50821235593574e-05
20.264,-1.0500263448381e-05,1.42263155249329e-05
20.2645,-7.45635254463162e-06,6.30546755878999e-06
20.265,-6.53419519179227e-06,3.3774500382401e-06
20.2655,-9.48627483714698e-06,2.48163023588895e-06
20.266,-1.60128314386163e-05,-1.69507646607907e-07
20.2665,-2.43432814771432e-05,-5.72275626311675e-06
20.267,-3.19577913114217e-05,-1.31120370663739e-05
20.2675,-3.64948469978811e-05,-2.08157758911002e-05
20.268,-3.7179542587247e-05,-2.71516052228838e-05
20.2685,-3.54040269754452e-05,-2.9938394555607e-05
20.269,-3.31127181488338e-05,-2.76526618346071e-05
20.2695,-3.0523358108452e-05,-2.13202966714428e-05
20.27,-2.60477240021657e-05,-1.39028724305959e-05
20.2705,-1.84910694758562e-05,-6.61596190959636e-06
20.271,-8.70449812562603e-06,3.51742985963942e-06
20.2715,1.08317266127359e-06,2.09793662442522e-05
20.272,9.10252276902053e-06,4.63021570667098e-05
20.2725,1.50640479881914e-05,7.42638554083316e-05
20.273,1.96751387196123e-05,9.81205721000225e-05
20.2735,2.34110654161989e-05,0.000114904018411645
20.274,2.59038361216046e-05,0.000125886065848674
20.2745,2.65568364694874e-05,0.000132974415967553
20.275,2.5488189149089e-05,0.000136384445390241
20.2755,2.36667109002461e-05,0.00013557174209874
20.276,2.22788712710735e-05,0.000130497017603967
20.2765,2.20229339083567e-05,0.000121011492569498
20.277,2.27741112562172e-05,0.000105979820415798
20.2775,2.37745917488213e-05,8.44153290469106e-05
20.278,2.41591590813095e-05,5.76526972050598e-05
20.2785,2.33664716451847e-05,2.94038412160701e-05
20.279,2.12961009090528e-05,3.05793723178589e-06
20.2795,1.83439890952642e-05,-2.0562887168432e-05
20.28,1.51860039351716e-05,-4.24431353429359e-05
20.2805,1.22026348742092e-05,-6.32742970409176e-05
20.281,9.05750659051821e-06,-8.29506512030621e-05
20.2815,5.10255697438927e-06,-0.000101319191218189
20.282,3.78787068289122e-07,-0.000117784335493834
20.2825,-3.99624669370541e-06,-0.000130100432865783
20.283,-6.83257037398436e-06,-0.000135333436418636
20.2835,-8.27145048374311e-06,-0.000133060259997853
20.284,-9.63793246472357e-06,-0.000126408097304605
20.2845,-1.14847015826372e-05,-0.000118532044166559
20.285,-1.23742723283209e-05,-0.000108784342662174
20.2855,-1.07046948772908e-05,-9.39644682571294e-05
20.286,-7.6699679609212e-06,-7.32345113510553e-05
20.2865,-6.93118085124125e-06,-5.02511521571333e-05
20.287,-1.054527884217e-05,-2.96956722065565e-05
20.2875,-1.61785678707301e-05,-1.22769655611328e-05
20.288,-1.93061526995711e-05,5.87935027501425e-06
20.2885,-1.76321841368713e-05,2.8255548490069e-05
20.289,-1.2577652561472e-05,5.2852266075799e-05
20.2895,-6.99941500812244e-06,7.3395348820318e-05
20.29,-2.62840104028663e-06,8.54704785734361e-05
20.2905,2.20860450155475e-07,8.97410445965746e-05
20.291,1.65782221223275e-06,8.92068667975817e-05
20.2915,1.83636941975038e-06,8.55711168825886e-05
20.292,1.15113297095748e-06,7.89632898881624e-05
20.2925,5.79948195775305e-08,6.95671080389385e-05
20.293,-1.25212194770608e-06,5.84856944797041e-05
20.2935,-2.62552026595927e-06,4.7316285526277e-05
20.294,-3.68057898826062e-06,3.7140244534946e-05
20.2945,-4.35203903385726e-06,2.8055215783847e-05
20.295,-5.5147690692109e-06,1.99082678767683e-05
20.2955,-8.27095621299453e-06,1.31943203988654e-05
20.296,-1.23564068837006e-05,8.66983509333371e-06
20.2965,-1.58118634018645e-05,6.2000558986897e-06
20.297,-1.67674930622565e-05,4.49248025129863e-06
20.2975,-1.54619352344221e-05,1.92176600819193e-06
20.298,-1.40822677377227e-05,-2.57378736707278e-06
20.2985,-1.45115133654024e-05,-8.94249916753745e-06
20.299,-1.65600231204791e-05,-1.58607894077447e-05
20.2995,-1.85452135144209e-05,-2.13777792334895e-05
20.3,-1.91646440284738e-05,-2.413486848561e-05
20.3005,-1.83843517522888e-05,-2.39491691925545e-05
20.301,-1.68183066421856e-05,-2.11893971212518e-05
20.3015,-1.49528765393704e-05,-1.58229318387306e-05
20.302,-1.31117200781182e-05,-7.34451987554071e-06
20.3025,-1.15843107214726e-05,4.18165385715679e-06
20.303,-1.02909338327461e-05,1.70433854185932e-05
20.3035,-8.44090004153433e-06,2.81544979756616e-05
20.304,-4.94457749491902e-06,3.48076162175944e-05
20.3045,5.80012878553885e-07,3.65043713454372e-05
20.305,7.27308344951649e-06,3.52056133556024e-05
20.3055,1.36891045130703e-05,3.34923888457564e-05
20.306,1.90018692170255e-05,3.2046816394757e-05
20.3065,2.3494835584111e-05,2.90045753873584e-05
20.307,2.80318570122573e-05,2.21407632090167e-05
20.3075,3.32830867923302e-05,1.15169660208069e-05
20.308,3.92997931996066e-05,-4.98063780509022e-07
20.3085,4.537479655672e-05,-1.14443371028666e-05
20.309,5.02065557869093e-05,-2.01819340020813e-05
20.3095,5.26393061833831e-05,-2.67264485952979e-05
20.31,5.25524098012475e-05,-3.24201900314678e-05
20.3105,5.06892850219375e-05,-4.03166951844257e-05
20.311,4.72386459963746e-05,-5.32977704245859e-05
20.3115,4.10209700283453e-05,-7.05200480824159e-05
20.312,3.09305405591349e-05,-8.68580019903589e-05
20.3125,1.82442055845156e-05,-9.73582431766862e-05
20.313,6.59107294294298e-06,-0.000101848826306955
20.3135,-1.04248857499899e-06,-0.000103941366819273
20.314,-4.96376447376546e-06,-0.000105999805900893
20.3145,-8.00669363589881e-06,-0.000106834164098221
20.315,-1.25455759294909e-05,-0.000104422941127107
20.3155,-1.89156565093056e-05,-9.90706680176838e-05
20.316,-2.63356627364436e-05,-9.28994519900595e-05
20.3165,-3.40322244404112e-05,-8.71793156199425e-05
20.317,-4.09797987477187e-05,-8.13991873848213e-05
20.3175,-4.56601054307267e-05,-7.49810135982194e-05
20.318,-4.71356662392819e-05,-6.84976558758431e-05
20.3185,-4.5944158684478e-05,-6.17567780341327e-05
20.319,-4.31529379049161e-05,-5.16316259245147e-05
20.3195,-3.88122051079033e-05,-3.4655522867419e-05
20.32,-3.20921393082566e-05,-1.23715049122299e-05
20.3205,-2.30044868601473e-05,8.63411632486153e-06
20.321,-1.33126932627441e-05,2.37020830433993e-05
20.3215,-5.08815203621705e-06,3.54611355055228e-05
20.322,1.41275228855625e-06,5.06097683410811e-05
20.3225,7.55993244844379e-06,7.23354185858174e-05
20.323,1.39950726088683e-05,9.7338632429906e-05
20.3235,1.94678179402096e-05,0.000119486150283871
20.324,2.23738021741034e-05,0.000134611669052245
20.3245,2.26760624046162e-05,0.000142052536358735
20.325,2.18796570886757e-05,0.000143487243939576
20.3255,2.15323981868966e-05,0.000141234889624482
20.326,2.19722811121313e-05,0.000137141530273993
20.3265,2.22661140594677e-05,0.000132401740896765
20.327,2.12667627066956e-05,0.000127970773954139
20.3275,1.88365091837387e-05,0.000124720809824884
20.328,1.59566966861874e-05,0.000123013260674923
20.3285,1.36390294651002e-05,0.000122194998948254
20.329,1.20556265178785e-05,0.000120695708732719
20.3295,1.07465976202198e-05,0.000116823764113328
20.33,9.04786559345653e-06,0.000109554975043098
20.3305,5.98599378214298e-06,9.87142629799618e-05
20.331,3.86182912491483e-07,8.48804681312735e-05
20.3315,-8.16871199308318e-06,6.92541893333044e-05
20.332,-1.84796571353342e-05,5.29186775405456e-05
20.3325,-2.81141147735568e-05,3.58045534244428e-05
20.333,-3.46866771596047e-05,1.70221568641363e-05
20.3335,-3.6977231849263e-05,-3.37237695914892e-06
20.334,-3.54226002876792e-05,-2.36504660541049e-05
20.3345,-3.18345822682987e-05,-4.19114367379378e-05
20.335,-2.81849237944877e-05,-5.76773244216423e-05
20.3355,-2.51136807406394e-05,-7.15670735898752e-05
20.336,-2.16141824406437e-05,-8.39220584071416e-05
20.3365,-1.63729808085721e-05,-9.40862080191743e-05
20.337,-9.35061011448164e-06,-0.000100640566103777
20.3375,-1.92117302791606e-06,-0.000102496016408339
20.338,4.36660919533939e-06,-0.000100706082326186
20.3385,8.88043546269601e-06,-9.89352209438076e-05
20.339,1.18862835220908e-05,-0.000100307225060342
20.3395,1.39512036414659e-05,-0.000103471304787543
20.34,1.55672646144078e-05,-0.000103950875505346
20.3405,1.6978832569875e-05,-0.000100274240973156
20.341,1.80023568543729e-05,-9.66036680570668e-05
20.3415,1.80714445683994e-05,-9.77262144405239e-05
20.342,1.6669630553715e-05,-0.000102702296080949
20.3425,1.39045653373133e-05,-0.000104769821675513
20.343,1.07929582711175e-05,-9.70359646379529e-05
20.3435,8.70325880968884e-06,-7.80589187218664e-05
20.344,7.95022043829652e-06,-5.29514685514569e-05
20.3445,7.04383455046479e-06,-2.94403940394898e-05
20.345,4.08374196001361e-06,-1.19001519639406e-05
20.3455,-9.7759187388547e-07,1.17076817151445e-06
20.346,-6.01636089746391e-06,1.3590517596541e-05
20.3465,-8.74066833421449e-06,2.6474334732064e-05
20.347,-8.71651994387208e-06,3.78883921177827e-05
20.3475,-7.58847546463633e-06,4.59652516073811e-05
20.348,-7.53190191014497e-06,5.00774150178337e-05
20.3485,-9.24863519561729e-06,4.97903206455336e-05
20.349,-1.13412565643185e-05,4.50407521057644e-05
20.3495,-1.1833409727712e-05,3.71247596428292e-05
20.35,-1.02735891848921e-05,2.7647106208935e-05
20.3505,-8.18603594787397e-06,1.64442699941207e-05
20.351,-7.55405417740309e-06,2.01581042830348e-06
20.3515,-8.90049425344631e-06,-1.54442543027887e-05
20.352,-1.06633533658498e-05,-3.2369446023826e-05
20.3525,-1.05027350097726e-05,-4.42415420485834e-05
20.353,-7.44335351282751e-06,-4.96285297154543e-05
20.3535,-2.63084722074798e-06,-5.08206778301011e-05
20.354,2.04745486158601e-06,-5.01619610484442e-05
20.3545,5.61339080710006e-06,-4.67895737242556e-05
20.355,8.19549123316825e-06,-3.78513670567351e-05
20.3555,1.03840100332447e-05,-2.24504350420004e-05
20.356,1.28540448502515e-05,-3.39267441180264e-06
20.3565,1.60882919114615e-05,1.520777368813e-05
20.357,1.99816965318444e-05,3.13600597091595e-05
20.3575,2.37897425309532e-05,4.56109565509415e-05
20.358,2.64750665264013e-05,5.86363095140228e-05
20.3585,2.72031382529675e-05,6.97395504907808e-05
20.359,2.6016342384827e-05,7.79833007853667e-05
20.3595,2.40683292790793e-05,8.37346188792363e-05
20.36,2.25590681652603e-05,8.83583271380142e-05
20.3605,2.13768181563131e-05,9.26729331468223e-05
20.361,1.9318011180552e-05,9.59631607191384e-05
20.3615,1.54965755725996e-05,9.62799121086555e-05
20.362,1.00274092858573e-05,9.17971329453442e-05
20.3625,3.69350249418678e-06,8.24163901161156e-05
20.363,-2.37524123026643e-06,7.02210323667568e-05
20.3635,-7.03017087846233e-06,5.8102584316511e-05
20.364,-9.97520239853094e-06,4.78905355484682e-05
20.3645,-1.23100728411479e-05,3.98470606132305e-05
20.365,-1.55239086236981e-05,3.34412225448458e-05
20.3655,-1.98345517640554e-05,2.78229391249366e-05
20.366,-2.39969550336491e-05,2.15580746983486e-05
20.3665,-2.67095467571354e-05,1.28299695582943e-05
20.367,-2.764316556451e-05,7.61364259541622e-07
20.3675,-2.71216703117266e-05,-1.32633858563276e-05
20.368,-2.54859223048481e-05,-2.59835746365759e-05
20.3685,-2.30095629804468e-05,-3.47863352566778e-05
20.369,-2.00076747451537e-05,-4.04584600935789e-05
20.3695,-1.67781694006187e-05,-4.71442546205131e-05
20.37,-1.3554213502733e-05,-5.88583202814284e-05
20.3705,-1.04774815740454e-05,-7.56901133601314e-05
20.371,-7.48857013432001e-06,-9.33665453867123e-05
20.3715,-4.37892899233354e-06,-0.000106491400417421
20.372,-1.08348886827647e-06,-0.000112360490144297
20.3725,2.24143872412926e-06,-0.000112066101901608
20.373,5.53572495382845e-06,-0.000108625557391125
20.3735,8.99974611719061e-06,-0.000104748718782557
20.374,1.27133129279086e-05,-0.000102119726775226
20.3745,1.6158447883548e-05,-0.00010095050731991
20.375,1.83653749400243e-05,-9.83250854146e-05
20.3755,1.88229417544757e-05,-8.76912893969922e-05
20.376,1.83668477660542e-05,-6.30838930406872e-05
20.3765,1.87612444129412e-05,-2.57351275103359e-05
20.377,2.07876985160732e-05,1.48038600432425e-05
20.3775,2.28341137314593e-05,4.80754969953651e-05
20.378,2.21230823381084e-05,7.11093227004296e-05
20.3785,1.75955558189496e-05,8.85585270605429e-05
20.379,1.10092792019229e-05,0.00010551852362396
20.3795,4.98343710644249e-06,0.00012207871487665
20.38,6.48404728486062e-07,0.000134513107346798
20.3805,-2.61796314533566e-06,0.000139279967182073
20.381,-6.1608765507454e-06,0.000134836963173537
20.3815,-1.11712406264272e-05,0.000121616932044849
20.382,-1.77767028950755e-05,0.000102492311115587
20.3825,-2.43950652846139e-05,8.25665367675105e-05
20.383,-2.87461091980954e-05,6.60539578866175e-05
20.3835,-2.99361627512997e-05,5.27318475355706e-05
20.384,-2.8951984519661e-05,3.89685923441196e-05
20.3845,-2.7014240500225e-05,2.27412639138815e-05
20.385,-2.4323153299799e-05,6.11229812645075e-06
20.3855,-2.06930306812905e-05,-7.88821718962174e-06
20.386,-1.65174384309215e-05,-1.89879297197075e-05
20.3865,-1.24734945069948e-05,-2.88769185210346e-05
20.387,-8.72693255067263e-06,-3.82798489672641e-05
20.3875,-4.98860772574039e-06,-4.68299414648355e-05
20.388,-1.16599456444411e-06,-5.47199388243723e-05
20.3885,2.47988639933741e-06,-6.20645477374392e-05
20.389,5.79254281733268e-06,-6.71634939280624e-05
20.3895,8.97172243634744e-06,-6.79326317757052e-05
20.39,1.21960837690791e-05,-6.52719947203261e-05
20.3905,1.51895630300285e-05,-6.27802394038259e-05
20.391,1.75055298962813e-05,-6.2199593702717e-05
20.3915,1.93424290509128e-05,-6.07623038368772e-05
20.392,2.17657422025504e-05,-5.44896301635668e-05
20.3925,2.57327960932132e-05,-4.31599023978956e-05
20.393,3.08932676862052e-05,-3.01121459769412e-05
20.3935,3.57229410205055e-05,-1.71055489723797e-05
20.394,3.90339122896946e-05,-1.25480910558605e-06
20.3945,4.09053764025716e-05,2.1539464296304e-05
20.395,4.16294384451417e-05,5.03601689378749e-05
20.3955,4.0307107840943e-05,7.74768920400301e-05
20.396,3.55199167026091e-05,9.35788186828151e-05
20.3965,2.70472541993089e-05,9.49664731778137e-05
20.397,1.57033145060729e-05,8.51785390986957e-05
20.3975,1.85572429616325e-06,6.97380988708115e-05
20.398,-1.41731775083045e-05,5.07736115186569e-05
20.3985,-3.01567389419547e-05,2.77178076851491e-05
20.399,-4.23659272702024e-05,1.64330980275192e-06
20.3995,-4.88750837029716e-05,-2.36765106357649e-05
20.4,-5.12832560549584e-05,-4.51322786710901e-05
20.4005,-5.23021856487773e-05,-6.27035782824707e-05
20.401,-5.26141773246935e-05,-7.79188391086608e-05
20.4015,-5.09825135767451e-05,-9.13705524804105e-05
20.402,-4.66538980473748e-05,-0.000102419845580412
20.4025,-4.05447569816039e-05,-0.000110200714540036
20.403,-3.41305637637476e-05,-0.000114197136038816
20.4035,-2.78329870171505e-05,-0.000114487145845898
20.404,-2.08848629319411e-05,-0.000111746310130196
20.4045,-1.27480229251556e-05,-0.000106351341419556
20.405,-4.15636749181764e-06,-9.71825278604715e-05
20.4055,3.67847470677148e-06,-8.19247893545126e-05
20.406,1.04201845013604e-05,-5.91112575725656e-05
20.4065,1.65534684462513e-05,-2.98372312967981e-05
20.407,2.24988843381566e-05,2.63317138423774e-06
20.4075,2.84662598128623e-05,3.46064538741056e-05
20.408,3.45750444725875e-05,6.29406808466518e-05
20.4085,4.03557891079991e-05,8.49595504577962e-05
20.409,4.47338427761401e-05,9.91000137380709e-05
20.4095,4.71486429813231e-05,0.000106472709003413
20.41,4.79845338610329e-05,0.000110533056160869
20.4105,4.74343334296021e-05,0.000113888758258414
20.411,4.48745861996557e-05,0.000116041249569852
20.4115,3.98995259159262e-05,0.000115166026686835
20.412,3.31350166111407e-05,0.000111058568534089
20.4125,2.54419265145863e-05,0.000104762830437783
20.413,1.68061995165527e-05,9.59831619193704e-05
20.4135,6.55377808199362e-06,8.30449880432291e-05
20.414,-5.4441642406025e-06,6.57822775516834e-05
20.4145,-1.81336071994698e-05,4.65790561632984e-05
20.415,-2.98197331052655e-05,2.7736547255319e-05
20.4155,-3.90255100337345e-05,9.49580178950508e-06
20.416,-4.49261553141993e-05,-8.16529356896793e-06
20.4165,-4.7483233973585e-05,-2.33556322627099e-05
20.417,-4.72667145223647e-05,-3.37594352838649e-05
20.4175,-4.48293797802239e-05,-3.95020532832041e-05
20.418,-4.02457811368236e-05,-4.25324856200275e-05
20.4185,-3.34322127043978e-05,-4.33798033783459e-05
20.419,-2.48585602339936e-05,-4.07591171697309e-05
20.4195,-1.58628917408815e-05,-3.49742403697e-05
20.42,-8.06725715284834e-06,-2.93310765240841e-05
20.4205,-2.08631874992338e-06,-2.64295785217242e-05
20.421,2.98835024282289e-06,-2.49271280821131e-05
20.4215,8.14535834407435e-06,-2.23012009790448e-05
20.422,1.27877823948195e-05,-1.92587116284098e-05
20.4225,1.53830060966465e-05,-1.87057187651013e-05
20.423,1.539540346049e-05,-2.160158406658e-05
20.4235,1.36561221383753e-05,-2.65865596079137e-05
20.424,1.13352312406035e-05,-3.25736230402438e-05
20.4245,9.5018066760204e-06,-3.87547654805294e-05
20.425,9.08176367510077e-06,-4.26873162944349e-05
20.4255,1.00641655649546e-05,-4.13907755869704e-05
20.426,1.09619392142003e-05,-3.49715174068508e-05
20.4265,1.00724157177832e-05,-2.75961732523627e-05
20.427,7.41793316628327e-06,-2.41067369423335e-05
20.4275,4.82156775934214e-06,-2.57406248784394e-05
20.428,3.86635991056916e-06,-2.91708912221819e-05
20.4285,4.15997140602469e-06,-3.00973830350739e-05
20.429,3.83997062372132e-06,-2.77851835394441e-05
20.4295,1.66174717974768e-06,-2.49852636243781e-05
20.43,-1.63765787510589e-06,-2.33179111405942e-05
20.4305,-4.34681831146943e-06,-2.07785329519205e-05
20.431,-6.19500259218778e-06,-1.49804187207306e-05
20.4315,-9.01928689076933e-06,-7.34311109514627e-06
20.432,-1.42375884476854e-05,-2.22259146210101e-06
20.4325,-2.01877741888821e-05,-1.93289874329044e-06
20.433,-2.32147469321609e-05,-3.85361866450632e-06
20.4335,-2.14481297071002e-05,-3.01738255140579e-06
20.434,-1.64477647582515e-05,3.27396450691517e-06
20.4345,-1.09312099708957e-05,1.39382906659394e-05
20.435,-6.00153982997222e-06,2.56357188872819e-05
20.4355,-1.11680387428193e-06,3.41973775387269e-05
20.436,4.29812844976978e-06,3.61822239901764e-05
20.4365,1.02182901162494e-05,3.21711001524249e-05
20.437,1.64330004970584e-05,2.85907885133387e-05
20.4375,2.24608509621844e-05,3.34575683817748e-05
20.438,2.69954217225294e-05,4.89710607616268e-05
20.4385,2.84125872140233e-05,6.93787624553255e-05
20.439,2.64542177754289e-05,8.64097238289863e-05
20.4395,2.29847859698626e-05,9.56021183893856e-05
20.44,2.04743315812655e-05,9.76274115829337e-05
20.4405,1.98597176165961e-05,9.575571417983e-05
20.441,2.02077113154719e-05,9.29280929278105e-05
20.4415,2.00661357996881e-05,8.9764728793185e-05
20.442,1.8562056992295e-05,8.46192078329176e-05
20.4425,1.55126121465803e-05,7.63870910596047e-05
20.443,1.13062916306018e-05,6.69201165178147e-05
20.4435,6.84538896647246e-06,5.92081126052544e-05
20.444,3.16356316084082e-06,5.35161914331829e-05
20.4445,8.56182933433032e-07,4.69383065251636e-05
20.445,-1.51449848687212e-07,3.67345550870504e-05
20.4455,-4.25644121586186e-07,2.28327802118091e-05
20.446,-6.96277027367344e-07,6.91788221761707e-06
20.4465,-1.56665510193779e-06,-1.00002491284476e-05
20.447,-3.37538390386603e-06,-2.86332846582814e-05
20.4475,-6.28002645607318e-06,-5.00450720115956e-05
20.448,-1.05107979224214e-05,-7.31369440950294e-05
20.4485,-1.64455360463653e-05,-9.3855585244902e-05
20.449,-2.40368314023667e-05,-0.000108041058922886
20.4495,-3.19420206060714e-05,-0.000115633752034434
20.45,-3.76828128051048e-05,-0.000121112437318989
20.4505,-3.92822579908245e-05,-0.000128732073517035
20.451,-3.6753857074962e-05,-0.000137828257310602
20.4515,-3.17822808298185e-05,-0.000143834704880083
20.452,-2.62277334361095e-05,-0.000143551481944751
20.4525,-2.12014918309954e-05,-0.00013827784592849
20.453,-1.70627577708451e-05,-0.000131729942508386
20.4535,-1.35462220527916e-05,-0.000125664054578253
20.454,-9.97103977123644e-06,-0.000117912316620694
20.4545,-6.0179455248664e-06,-0.000104928422331319
20.455,-2.41906870316221e-06,-8.64000941343175e-05
20.4555,-2.46583090407113e-07,-6.63834145602261e-05
20.456,7.52824108737372e-07,-4.87145817515001e-05
20.4565,2.49280023336425e-06,-3.24315935910846e-05
20.457,6.64761422960337e-06,-1.40199461905754e-05
20.4575,1.27066053943912e-05,6.61038099607632e-06
20.458,1.84298695367637e-05,2.57308474408943e-05
20.4585,2.20647814775243e-05,4.14568086389834e-05
20.459,2.36415039339194e-05,5.59252692099475e-05
20.4595,2.42302318713829e-05,7.06197278071583e-05
20.46,2.45347606312055e-05,8.32632026699405e-05
20.4605,2.43714559028113e-05,9.13746590442234e-05
20.461,2.3067789401532e-05,9.56364376922149e-05
20.4615,2.00006026872763e-05,9.73106002910485e-05
20.462,1.49159867708577e-05,9.51780247066323e-05
20.4625,8.21153072145116e-06,8.78989879297404e-05
20.463,1.13558707902975e-06,7.74096018188131e-05
20.4635,-4.70319965374759e-06,6.71835681744661e-05
20.464,-8.60740146117586e-06,5.82524825354388e-05
20.4645,-1.14403345085149e-05,4.94271867880476e-05
20.465,-1.43953878184676e-05,4.11770990650953e-05
20.4655,-1.72206164855581e-05,3.71008008588833e-05
20.466,-1.84545799875744e-05,4.05722576702698e-05
20.4665,-1.74752806163901e-05,5.09004592134476e-05
20.467,-1.5396403143749e-05,6.38968277559936e-05
20.4675,-1.35953131806164e-05,7.57594356410104e-05
20.468,-1.22070783660411e-05,8.52565651619554e-05
20.4685,-1.06528692104086e-05,9.2487272529226e-05
20.469,-8.90294294020393e-06,9.72160757139826e-05
20.4695,-7.23356833860931e-06,9.90833374618822e-05
20.47,-5.00305128081634e-06,9.83955928226634e-05
20.4705,-8.20426143962081e-07,9.56440399718636e-05
20.471,5.6296749205476e-06,9.03891215519042e-05
20.4715,1.26690105847319e-05,8.14478610581656e-05
20.472,1.81258512973815e-05,6.84605216067374e-05
20.4725,2.12815309569513e-05,5.25173635812763e-05
20.473,2.28610551631181e-05,3.45662990187896e-05
20.4735,2.37069891628134e-05,1.39122621067463e-05
20.474,2.41421470286255e-05,-1.05841294831817e-05
20.4745,2.41509877533976e-05,-3.82161441803692e-05
20.475,2.33628306933735e-05,-6.6535158160364e-05
20.4755,2.10669591214688e-05,-9.35587108271502e-05
20.476,1.70364981060097e-05,-0.000118855163605656
20.4765,1.23202659161524e-05,-0.000142685480179576
20.477,8.46340849501399e-06,-0.00016494857625017
20.4775,5.795187249707e-06,-0.000184434437480596
20.478,3.13757981878805e-06,-0.000198138488570461
20.4785,-6.11332597308193e-07,-0.000202340516451585
20.479,-5.18677154044598e-06,-0.000196417297533863
20.4795,-9.4501927279913e-06,-0.000185265813915071
20.48,-1.27174760994089e-05,-0.000175216827679901
20.4805,-1.5321709746422e-05,-0.000166619830980147
20.481,-1.79427314830873e-05,-0.000152987361570985
20.4815,-2.04917358883714e-05,-0.000129055034927966
20.482,-2.19310000847289e-05,-9.75419574386919e-05
20.4825,-2.15024077785137e-05,-6.61331094200357e-05
20.483,-1.98840299485057e-05,-3.93658625302371e-05
20.4835,-1.86421676848521e-05,-1.51003601196967e-05
20.484,-1.86891318720176e-05,1.18174367721415e-05
20.4845,-1.97278577868607e-05,4.32325702564752e-05
20.485,-2.10129653695509e-05,7.47532804780011e-05
20.4855,-2.20411377590371e-05,9.94170362976035e-05
20.486,-2.23397844060716e-05,0.000114539488448914
20.4865,-2.10254448536351e-05,0.000123799519445543
20.487,-1.71459645831089e-05,0.000131950364583706
20.4875,-1.0660634022155e-05,0.000139104076494093
20.488,-2.7192770102077e-06,0.000141529014150672
20.4885,5.44423056258229e-06,0.00013670506368484
20.489,1.3640554002347e-05,0.00012585968640231
20.4895,2.21708070773483e-05,0.000112178653231305
20.49,3.03561289292689e-05,9.82096043865136e-05
20.4905,3.65978996891135e-05,8.52163190979457e-05
20.491,4.0197775771605e-05,7.39031942101833e-05
20.4915,4.21138644701427e-05,6.48390358794686e-05
20.492,4.31127783706397e-05,5.81673033440177e-05
20.4925,4.19821957408774e-05,5.34536804436907e-05
20.493,3.68309143346656e-05,5.02196624693798e-05
20.4935,2.78959307641558e-05,4.83180822296293e-05
20.494,1.78740839226723e-05,4.72515209114992e-05
20.4945,9.4260925759965e-06,4.56729500063835e-05
20.495,3.30087162784119e-06,4.27819845025182e-05
20.4955,-9.89002887469903e-07,3.9897980614826e-05
20.496,-3.68829542981326e-06,3.9065590950824e-05
20.4965,-4.76934201008785e-06,4.0146523601406e-05
20.497,-5.14460965831798e-06,4.08165858529713e-05
20.4975,-7.09189386267397e-06,3.93011442415395e-05
20.498,-1.266174395836e-05,3.55508599219768e-05
20.4985,-2.14341432697521e-05,2.98997306223561e-05
20.499,-3.04236249129402e-05,2.22003832091402e-05
20.4995,-3.66496557652931e-05,1.24072437943226e-05
20.5,-3.9370586743814e-05,7.3145693189199e-07
20.5005,-3.9643575234506e-05,-1.30503840491061e-05
20.501,-3.87453898773877e-05,-2.95484001296293e-05
20.5015,-3.76345747513889e-05,-4.87120923990586e-05
20.502,-3.6886371900393e-05,-6.94272754287828e-05
20.5025,-3.60873424060415e-05,-9.0418252324573e-05
20.503,-3.3681948182255e-05,-0.000111049347293656
20.5035,-2.81374673788639e-05,-0.000130954204081566
20.504,-1.9248168708933e-05,-0.000149308640490781
20.5045,-8.14113771294224e-06,-0.00016482744105977
20.505,3.72921858283603e-06,-0.000176397271806756
20.5055,1.52011968482716e-05,-0.000183889564680046
20.506,2.50643984963261e-05,-0.000188755190880526
20.5065,3.18458005602813e-05,-0.00019332197622129
20.507,3.4759167075001e-05,-0.000198078816341043
20.5075,3.46474942131234e-05,-0.000199012021288952
20.508,3.30942040279058e-05,-0.000188788128674691
20.5085,3.06183898936465e-05,-0.000162334164624536
20.509,2.65055909694544e-05,-0.0001219536994596
20.5095,2.03005416674511e-05,-7.65439631507064e-05
20.51,1.27357801346031e-05,-3.52546723575733e-05
20.5105,5.36625367999946e-06,-1.46521997993019e-06
20.511,-6.20538888590235e-08,2.77907894402993e-05
20.5115,-2.13532065338361e-06,5.72466446954067e-05
20.512,-4.96120526708987e-07,8.82956826360417e-05
20.5125,3.58275855221464e-06,0.000117772689797528
20.513,7.48371145893206e-06,0.000141001950663307
20.5135,8.44994491433733e-06,0.000155675351273015
20.514,5.05157522213227e-06,0.000163299786576697
20.5145,-1.9836070530762e-06,0.000167801787017056
20.515,-1.02245826521962e-05,0.000172525157731237
20.5155,-1.71100011645484e-05,0.000177408082938026
20.516,-2.13956717230736e-05,0.000178987782401505
20.5165,-2.31625732786866e-05,0.00017433091099418
20.517,-2.26923549399371e-05,0.000165195542941186
20.5175,-1.99250893239816e-05,0.000157162033831644
20.518,-1.51383195239228e-05,0.000154112680060295
20.5185,-9.45315929582458e-06,0.000154392785579813
20.519,-4.06347235257087e-06,0.00015290709318611
20.5195,8.43447882168574e-07,0.000146060436452408
20.52,5.9437674513935e-06,0.000133787336413477
20.5205,1.1531014640848e-05,0.000117762315391656
20.521,1.67742232432235e-05,9.95150655110936e-05
20.5215,2.04651395831476e-05,8.05260961822274e-05
20.522,2.22699545453619e-05,6.25368270410091e-05
20.5225,2.28589784621173e-05,4.65346959879141e-05
20.523,2.29591472593556e-05,3.17767152919426e-05
20.5235,2.28002957461548e-05,1.66709706234818e-05
20.524,2.24408842153205e-05,8.40436786864131e-07
20.5245,2.20052701400083e-05,-1.42041214489251e-05
20.525,2.14021146239477e-05,-2.70947127279592e-05
20.5255,2.02014751135585e-05,-3.91841575005549e-05
20.526,1.79633599423799e-05,-5.40553826569953e-05
20.5265,1.46103371027164e-05,-7.37588674693659e-05
20.527,1.06663142086643e-05,-9.60159259066045e-05
20.5275,7.2287396543485e-06,-0.000115786970731234
20.528,5.27250221102059e-06,-0.00012951090141514
20.5285,4.66018646819039e-06,-0.000137767862068343
20.529,4.13570748224895e-06,-0.000144294104734529
20.5295,2.53922079106435e-06,-0.000152703320639877
20.53,-2.92737130006002e-07,-0.000164020314984687
20.5305,-4.09275012823964e-06,-0.00017702493474966
20.531,-9.15814117645583e-06,-0.000190077311600177
20.5315,-1.60178450535102e-05,-0.000201579023446935
20.532,-2.40581950408386e-05,-0.000209037700902025
20.5325,-3.12597666881328e-05,-0.000209372821918092
20.533,-3.57565139922462e-05,-0.000200992247132113
20.5335,-3.72133036400793e-05,-0.000185099976394348
20.534,-3.63868653305889e-05,-0.000164939694339285
20.5345,-3.39550286479906e-05,-0.000144218995546831
20.535,-3.03581469507918e-05,-0.000125450131874007
20.5355,-2.64861660897135e-05,-0.000108342699709844
20.536,-2.37862447090671e-05,-9.00477839852081e-05
20.5365,-2.31419712684294e-05,-6.83034808058877e-05
20.537,-2.35250276198404e-05,-4.41507359852162e-05
20.5375,-2.21705729757261e-05,-2.04252044377099e-05
20.538,-1.66534311779166e-05,1.85767462353768e-06
20.5385,-7.03437800502532e-06,2.40431342962675e-05
20.539,3.98204693473289e-06,4.70413972561466e-05
20.5395,1.30075319566099e-05,6.95297780457449e-05
20.54,1.83435982447688e-05,8.89640424800329e-05
20.5405,2.07408278585464e-05,0.000103344876783464
20.541,2.19740625467642e-05,0.000112344747771671
20.5415,2.29509120848305e-05,0.000117846240930579
20.542,2.34205628736439e-05,0.000123175641228577
20.5425,2.29698760962138e-05,0.000130935939028556
20.543,2.15750579987236e-05,0.000141698410689027
20.5435,1.94866279718221e-05,0.000154851881303482
20.544,1.72330460234459e-05,0.000169260933089809
20.5445,1.54291373994159e-05,0.000181958530636836
20.545,1.40335018726266e-05,0.000187725635883969
20.5455,1.21384848786626e-05,0.000182395559590401
20.546,8.95404866826929e-06,0.000166713517618653
20.5465,4.71830269058952e-06,0.00014557810609635
20.547,2.99982454997071e-07,0.000123525714005086
20.5475,-3.9039020908041e-06,0.00010204208049941
20.548,-8.32425684570145e-06,8.0964785755136e-05
20.5485,-1.33190640639573e-05,6.08901017153128e-05
20.549,-1.81304422575474e-05,4.34411799849914e-05
20.5495,-2.12735047732907e-05,2.97912093473231e-05
20.55,-2.20913654664535e-05,1.96651547039828e-05
20.5505,-2.13732440492256e-05,1.19185472116022e-05
20.551,-2.01881428122181e-05,5.81375314109847e-06
20.5515,-1.86697222574084e-05,1.38811209418839e-06
20.552,-1.63220541158963e-05,-1.42712075859612e-06
20.5525,-1.30320219635671e-05,-3.54800879329871e-06
20.553,-9.23227551352492e-06,-6.24276198913968e-06
20.5535,-5.25340532756213e-06,-1.01417949839484e-05
20.554,-1.03841536220253e-06,-1.49426382208755e-05
20.5545,3.40191396332816e-06,-1.98580347050206e-05
20.555,7.63722605896063e-06,-2.43504413145512e-05
20.5555,1.12006496921819e-05,-2.87495193401497e-05
20.556,1.40734269375173e-05,-3.40247630820511e-05
20.5565,1.64479209276e-05,-4.0603926859291e-05
20.557,1.82470144610789e-05,-4.76171402223856e-05
20.5575,1.9298375706683e-05,-5.35739809386897e-05
20.558,1.97283658569347e-05,-5.7544633839042e-05
20.5585,1.96729693064401e-05,-5.96365996155524e-05
20.559,1.88240865522651e-05,-6.08253959084472e-05
20.5595,1.68262973517946e-05,-6.24806597456134e-05
20.56,1.40656341734839e-05,-6.54658490139422e-05
20.5605,1.16631254861677e-05,-6.91107945452148e-05
20.561,1.0618220484478e-05,-7.10955187345862e-05
20.5615,1.0994617349098e-05,-6.88996168241914e-05
20.562,1.17736019833413e-05,-6.19833563249884e-05
20.5625,1.14971833889871e-05,-5.26284641261376e-05
20.563,9.40509721202922e-06,-4.4163381290256e-05
20.5635,6.07231829245033e-06,-3.82085528416162e-05
20.564,2.59971974926778e-06,-3.40163492535058e-05
20.5645,-8.4781746843756e-07,-3.00922842075216e-05
20.565,-5.16573256072871e-06,-2.52609496991367e-05
20.5655,-1.08708605944299e-05,-1.84733810291027e-05
20.566,-1.70909433675442e-05,-9.69472316258824e-06
20.5665,-2.21442083492093e-05,-1.57272942504893e-06
20.567,-2.47368288622732e-05,1.86384918092998e-06
20.5675,-2.45978091682062e-05,-5.60466254126499e-07
20.568,-2.24249724355679e-05,-5.74187409937397e-06
20.5685,-1.9477999494115e-05,-1.02247163876049e-05
20.569,-1.69999125690313e-05,-1.37986541833577e-05
20.5695,-1.54985144440441e-05,-1.75749620590857e-05
20.57,-1.42362764154442e-05,-2.02511712573494e-05
20.5705,-1.17136251155381e-05,-1.87829211954135e-05
20.571,-7.16213492618975e-06,-1.20936959878431e-05
20.5715,-1.52369679505304e-06,-1.95902187571279e-06
20.572,3.38512470430457e-06,9.55083604349157e-06
20.5725,6.62403313264055e-06,2.15309875851026e-05
20.573,8.7420086140472e-06,3.2956280330281e-05
20.5735,1.07028851544634e-05,4.17492309202327e-05
20.574,1.26569132283737e-05,4.60947828396996e-05
20.5745,1.40321121661234e-05,4.59591041154633e-05
20.575,1.45130466400419e-05,4.27906858288587e-05
20.5755,1.44833949857002e-05,3.81934071474287e-05
20.576,1.45360947675459e-05,3.3039494312978e-05
20.5765,1.4834196396952e-05,2.72346895581054e-05
20.577,1.50178607470193e-05,2.01586601218981e-05
20.5775,1.46218333023369e-05,1.19570287024657e-05
20.578,1.34041936843905e-05,4.47228636972697e-06
20.5785,1.11509148637267e-05,8.93535791841172e-08
20.579,7.50312833896999e-06,-5.84207030453597e-07
20.5795,2.53096675722851e-06,6.58050116162316e-07
20.58,-2.72198485351078e-06,1.25001480849953e-06
20.5805,-7.05861014455068e-06,-4.6249029718373e-07
20.581,-1.05431200068147e-05,-4.76406675325432e-06
20.5815,-1.42796801218663e-05,-1.06878605240447e-05
20.582,-1.85126800550103e-05,-1.63653866830998e-05
20.5825,-2.16941192556129e-05,-1.99701169811399e-05
20.583,-2.19432395632883e-05,-2.07713681230244e-05
20.5835,-1.90623664104523e-05,-1.91933816350324e-05
20.584,-1.47859322966075e-05,-1.57889666369068e-05
20.5845,-1.12572007780386e-05,-1.03533342982372e-05
20.585,-9.4300575435483e-06,-2.48319042929555e-06
20.5855,-8.77169441806129e-06,6.7089859834047e-06
20.586,-8.1472811181405e-06,1.40567116859367e-05
20.5865,-6.69850113623488e-06,1.66081246678419e-05
20.587,-4.10586992646881e-06,1.44651364280078e-05
20.5875,-6.97186834308115e-07,1.04264815008255e-05
20.588,2.5130710551074e-06,6.79188123414258e-06
20.5885,4.54666859619975e-06,3.54855664583589e-06
20.589,5.69841897594704e-06,-2.87509160521516e-07
20.5895,7.62614618771241e-06,-4.91066401202542e-06
20.59,1.16039420942954e-05,-9.80745426284378e-06
20.5905,1.68923477385146e-05,-1.44128050291043e-05
20.591,2.14932441168597e-05,-1.77243336265446e-05
20.5915,2.43868808910764e-05,-1.79122096930051e-05
20.592,2.6174502875532e-05,-1.35798618712938e-05
20.5925,2.74702772746154e-05,-5.70034277927784e-06
20.593,2.77040971324176e-05,2.42195388696501e-06
20.5935,2.59254577370755e-05,7.51022203642373e-06
20.594,2.19033995950371e-05,8.21672845247905e-06
20.5945,1.59143993577269e-05,4.73299976583857e-06
20.595,8.26322700459862e-06,-2.19391016888567e-06
20.5955,-2.60175212853929e-07,-1.08665550805605e-05
20.596,-8.01935856473756e-06,-1.81242767776238e-05
20.5965,-1.35333998054219e-05,-2.08698413502084e-05
20.597,-1.68744844732646e-05,-1.86138441409963e-05
20.5975,-1.95680002359421e-05,-1.39431191314747e-05
20.598,-2.29243441564632e-05,-1.0193070402033e-05
20.5985,-2.67223226485434e-05,-8.99334246681935e-06
20.599,-2.97628374837439e-05,-1.00322418120641e-05
20.5995,-3.14040718452157e-05,-1.2083165336713e-05
20.6,-3.18712355463785e-05,-1.32924764176763e-05
20.6005,-3.10590197227198e-05,-1.13726193041299e-05
20.601,-2.8007156299929e-05,-5.28758804018025e-06
20.6015,-2.22081852504701e-05,3.15175283906389e-06
20.602,-1.49675747559401e-05,1.06824819758446e-05
20.6025,-8.80383538270984e-06,1.59929803306164e-05
20.603,-5.39204609186319e-06,2.10716587855989e-05
20.6035,-4.20701162183435e-06,2.89162560636906e-05
20.604,-3.28379996130922e-06,4.01868541910621e-05
20.6045,-1.3119538999564e-06,5.21686339156526e-05
20.605,1.40979652416622e-06,6.09002081690764e-05
20.6055,4.29556165333971e-06,6.43436361348062e-05
20.606,7.85096786711063e-06,6.36229073757968e-05
20.6065,1.27395907307974e-05,6.13757897971774e-05
20.607,1.80694499765823e-05,5.89203404592052e-05
20.6075,2.19695745841048e-05,5.47539717079292e-05
20.608,2.38558276771161e-05,4.58182256071289e-05
20.6085,2.49920911500716e-05,3.07741282146507e-05
20.609,2.65670967231573e-05,1.2334480457591e-05
20.6095,2.80809956144816e-05,-4.06970413764128e-06
20.61,2.80180820354304e-05,-1.44484485144407e-05
20.6105,2.55321463471126e-05,-1.91253115844785e-05
20.611,2.10474132226436e-05,-2.14438004900037e-05
20.6115,1.55823975944714e-05,-2.40562087138062e-05
20.612,9.94156341908033e-06,-2.70445635234955e-05
20.6125,4.47175798411783e-06,-2.94283570485881e-05
20.613,-6.40905186500403e-07,-3.13733305617136e-05
20.6135,-4.9532413238497e-06,-3.42244815223269e-05
20.614,-7.91033239146461e-06,-3.88418183129833e-05
20.6145,-9.55541546973666e-06,-4.4419774009699e-05
20.615,-1.06636144687205e-05,-4.86107995284728e-05
20.6155,-1.17564215021381e-05,-4.8601708207998e-05
20.616,-1.23129789561487e-05,-4.28851931829265e-05
20.6165,-1.15056380903528e-05,-3.26838476845482e-05
20.617,-9.57832982520099e-06,-2.10700924733881e-05
20.6175,-7.88846051140345e-06,-1.01637978899376e-05
20.618,-7.50513495184633e-06,-1.25997212380318e-08
20.6185,-8.31002031954342e-06,9.42342156187084e-06
20.619,-9.55813289130282e-06,1.67095588258088e-05
20.6195,-1.05990043995752e-05,2.03019290726055e-05
20.62,-1.07532561679454e-05,2.03048479174457e-05
20.6205,-9.26477499534335e-06,1.81923745230258e-05
20.621,-5.99929165852313e-06,1.58137520788407e-05
20.6215,-1.74135096503293e-06,1.4779005692624e-05
20.622,2.64363138925115e-06,1.54363095907635e-05
20.6225,6.85745891829722e-06,1.63484771359632e-05
20.623,1.06077183261204e-05,1.59218325838489e-05
20.6235,1.30635289896665e-05,1.41463386539619e-05
20.624,1.35997175520811e-05,1.16097232372282e-05
20.6245,1.27933530305064e-05,7.98348970777599e-06
20.625,1.19952238081426e-05,3.356954637411e-06
20.6255,1.19626122843607e-05,-9.05000320335674e-08
20.626,1.24156044066927e-05,-2.44111167778918e-07
20.6265,1.27507001201404e-05,1.60722585914308e-06
20.627,1.2471722600552e-05,2.07277451156324e-06
20.6275,1.10092526927658e-05,5.30223437833199e-07
20.628,8.00896113812735e-06,6.71912873865686e-07
20.6285,4.02035306852177e-06,6.45560687661615e-06
20.629,2.80164072822729e-07,1.77045960122263e-05
20.6295,-2.3347508217713e-06,3.00935362642459e-05
20.63,-3.77596438234936e-06,3.805412516712e-05
20.6305,-4.56262635186411e-06,3.70077336680627e-05
20.631,-5.68641764436504e-06,2.4719788819767e-05
20.6315,-8.32241635203705e-06,2.90310507393145e-06
20.632,-1.26687280384462e-05,-2.27316145188299e-05
20.6325,-1.7290117363136e-05,-4.58398366367185e-05
20.633,-2.04734618893646e-05,-6.33172477790299e-05
20.6335,-2.20445085541229e-05,-7.54996356271983e-05
20.634,-2.31419424596118e-05,-8.36607724713467e-05
20.6345,-2.44907088408692e-05,-8.88367753773314e-05
20.635,-2.56243962491461e-05,-9.2453220061718e-05
20.6355,-2.56656825331097e-05,-9.59755576774355e-05
20.636,-2.42589219856854e-05,-9.90941382951538e-05
20.6365,-2.16284796273947e-05,-9.93176635365085e-05
20.637,-1.80683160950654e-05,-9.45938795046218e-05
20.6375,-1.36935182299835e-05,-8.59903259714942e-05
20.638,-8.65431698514026e-06,-7.61457365041747e-05
20.6385,-3.16280180333665e-06,-6.47291361273396e-05
20.639,2.88347677093881e-06,-4.7499445683401e-05
20.6395,9.87585800093739e-06,-2.1299646340406e-05
20.64,1.78037137381565e-05,1.12028618432404e-05
20.6405,2.58530285602156e-05,4.27902417922896e-05
20.641,3.27711652092499e-05,6.69859057346935e-05
20.6415,3.73208510124731e-05,8.20951286057044e-05
20.642,3.84959994658605e-05,9.14436812507105e-05
20.6425,3.59532588774265e-05,0.000100038155964034
20.643,3.04663188102191e-05,0.000109764951292831
20.6435,2.3482792312575e-05,0.000117081345672567
20.644,1.60230368423895e-05,0.000116118060941175
20.6445,8.41638037111897e-06,0.000104810983046156
20.645,1.05213928731113e-06,8.74167905730876e-05
20.6455,-5.4619709968706e-06,7.02806256487905e-05
20.646,-1.10424881329336e-05,5.60226686318573e-05
20.6465,-1.60598940845271e-05,4.3158627461911e-05
20.647,-2.02731887652828e-05,3.06515597900359e-05
20.6475,-2.29010201707118e-05,2.06998718621747e-05
20.648,-2.40798156021282e-05,1.62874291723738e-05
20.6485,-2.5069807619135e-05,1.70251458346146e-05
20.649,-2.64634843994e-05,1.84656421618535e-05
20.6495,-2.72430381412983e-05,1.58534967938277e-05
20.65,-2.62863739378678e-05,8.62736544600648e-06
20.6505,-2.39018812607025e-05,1.09330356675225e-06
20.651,-2.10249886184941e-05,-1.6860322428251e-06
20.6515,-1.75634568157412e-05,1.23895334995754e-06
20.652,-1.2581942957372e-05,6.15800363412601e-06
20.6525,-5.90605405880124e-06,9.01301871464768e-06
20.653,1.35288629728544e-06,9.57419233033381e-06
20.6535,7.89880580475502e-06,1.05525797481433e-05
20.654,1.32946949678227e-05,1.31344479518855e-05
20.6545,1.79549098553511e-05,1.52133719186337e-05
20.655,2.25106449058467e-05,1.46636831859124e-05
20.6555,2.6991021299453e-05,1.25287860373819e-05
20.656,3.02319616253574e-05,1.11224118455139e-05
20.6565,3.03528820191339e-05,9.85986732033189e-06
20.657,2.64245353344306e-05,5.28012370623596e-06
20.6575,1.98886111860068e-05,-4.49608210383726e-06
20.658,1.41071057898847e-05,-1.69924312477051e-05
20.6585,1.2087152693199e-05,-2.75366818311118e-05
20.659,1.41751390775033e-05,-3.30744946467501e-05
20.6595,1.77321688666825e-05,-3.36544242350982e-05
20.66,1.92876795334371e-05,-3.13778217695851e-05
20.6605,1.74387107413172e-05,-2.86339201909382e-05
20.661,1.38209544445835e-05,-2.68774924212579e-05
20.6615,1.12336092131342e-05,-2.63624794554503e-05
20.662,1.08662181060709e-05,-2.67022087203161e-05
20.6625,1.13930406956341e-05,-2.75911263354809e-05
20.663,1.07056713519305e-05,-2.89808857512093e-05
20.6635,8.29229073966145e-06,-3.07006862034642e-05
20.664,5.46934971155047e-06,-3.21529068449112e-05
20.6645,3.19513733853165e-06,-3.26800884749196e-05
20.665,4.82325260033781e-07,-3.24907770387738e-05
20.6655,-4.2749837436167e-06,-3.30294113454546e-05
20.666,-1.09138816816363e-05,-3.58334123682132e-05
20.6665,-1.72664088373328e-05,-4.08853341671129e-05
20.667,-2.10312928838873e-05,-4.65249869001432e-05
20.6675,-2.14246019193588e-05,-5.10124330696984e-05
20.668,-1.96104143312659e-05,-5.37615665122632e-05
20.6685,-1.81369362345397e-05,-5.52578848330168e-05
20.669,-1.93533948589183e-05,-5.64271470933731e-05
20.6695,-2.35336423965369e-05,-5.7864363350021e-05
20.67,-2.84898860110909e-05,-5.89865690310293e-05
20.6705,-3.12263496867341e-05,-5.82514701385509e-05
20.671,-3.00153868142271e-05,-5.48198778288935e-05
20.6715,-2.50957658705673e-05,-4.94346579883083e-05
20.672,-1.78004903146004e-05,-4.29898360605993e-05
20.6725,-9.3204549180492e-06,-3.49908465585913e-05
20.673,-3.43852312856294e-07,-2.44756210010625e-05
20.6735,8.45387560587461e-06,-1.21186671664811e-05
20.674,1.61934379673762e-05,-2.6489149545581e-07
20.6745,2.22112933226441e-05,9.46769934643109e-06
20.675,2.61034837857029e-05,1.78484702637224e-05
20.6755,2.72170515284328e-05,2.68316415077544e-05
20.676,2.50063046149161e-05,3.75109148645069e-05
20.6765,2.03405832501884e-05,5.01170136620655e-05
20.677,1.56114021630612e-05,6.52862077071084e-05
20.6775,1.28173404909741e-05,8.36453719198358e-05
20.678,1.17579910499613e-05,0.000103494726251996
20.6785,1.03910213838736e-05,0.00011992145237165
20.679,6.91861688755039e-06,0.000127703574273224
20.6795,1.55822041427898e-06,0.000125493484112488
20.68,-3.71770026885769e-06,0.000116452564014147
20.6805,-7.29620516239256e-06,0.00010469522199806
20.681,-9.60366900608743e-06,9.21526660121032e-05
20.6815,-1.23305795012512e-05,7.91480652106898e-05
20.682,-1.62549576871665e-05,6.64565695656568e-05
20.6825,-2.0583937159673e-05,5.53261070639295e-05
20.683,-2.43658213997015e-05,4.57410736288538e-05
20.6835,-2.74756887963105e-05,3.58247735043261e-05
20.684,-2.97931843793065e-05,2.37677255201625e-05
20.6845,-3.03838878203176e-05,1.03609420886837e-05
20.685,-2.83811572129421e-05,-1.30700006777448e-06
20.6855,-2.42598920310086e-05,-9.45788221066537e-06
20.686,-1.94099159672053e-05,-1.61478682310713e-05
20.6865,-1.45904476242049e-05,-2.50386799972605e-05
20.687,-9.51620708284458e-06,-3.71710526562646e-05
20.6875,-3.86261187610469e-06,-4.99205231186265e-05
20.688,2.09549054740664e-06,-5.95190438940341e-05
20.6885,7.91908921631807e-06,-6.37199504022131e-05
20.689,1.34179282104459e-05,-6.26735370311664e-05
20.6895,1.83713508012447e-05,-5.83151871416003e-05
20.69,2.21707190711263e-05,-5.30208744451139e-05
20.6905,2.40743311196459e-05,-4.85173649823669e-05
20.691,2.40041865889144e-05,-4.55935106718139e-05
20.6915,2.30742973134917e-05,-4.37968527127409e-05
20.692,2.29204007803758e-05,-4.08452273949872e-05
20.6925,2.41258459898311e-05,-3.35522701410777e-05
20.693,2.55365377171587e-05,-2.08838673674077e-05
20.6935,2.55111552920941e-05,-5.8604955790066e-06
20.694,2.36097514650047e-05,6.79068298357016e-06
20.6945,2.05994027214194e-05,1.50349704759786e-05
20.695,1.70961808000267e-05,2.08780984737428e-05
20.6955,1.30177521192975e-05,2.71443270535135e-05
20.696,8.45288727175537e-06,3.33106582638113e-05
20.6965,4.14091310553968e-06,3.48151461101866e-05
20.697,4.7693936226265e-07,2.67152358886404e-05
20.6975,-3.36083212276931e-06,8.49681441438939e-06
20.698,-8.47179976852853e-06,-1.44889754165498e-05
20.6985,-1.45879112353838e-05,-3.47438223823304e-05
20.699,-2.00365554434314e-05,-4.81992870558322e-05
20.6995,-2.33866833572269e-05,-5.60783686964397e-05
20.7,-2.46512893028374e-05,-6.15509749771424e-05
20.7005,-2.47476502115954e-05,-6.57042226836671e-05
20.701,-2.4147257445827e-05,-6.73452918397816e-05
20.7015,-2.23747463328828e-05,-6.56610012247107e-05
20.702,-1.88988231409078e-05,-6.19233210518196e-05
20.7025,-1.42932306894328e-05,-5.88019169803307e-05
20.703,-9.92142114932265e-06,-5.83251307149347e-05
20.7035,-6.16755710994872e-06,-5.9778518868745e-05
20.704,-1.70664988060493e-06,-5.89746273212332e-05
20.7045,4.65674952318324e-06,-5.02847340300985e-05
20.705,1.18840258310634e-05,-3.08796403788528e-05
20.7055,1.73699183495118e-05,-3.97694545579068e-06
20.706,1.95795119167174e-05,2.2458920058256e-05
20.7065,1.93143577041148e-05,4.15408286942558e-05
20.707,1.84615078844933e-05,5.25406361953886e-05
20.7075,1.81610293889757e-05,5.9629270229975e-05
20.708,1.82671471536023e-05,6.59335878143642e-05
20.7085,1.80033047275563e-05,7.04854469546082e-05
20.709,1.67915958313785e-05,7.11147643810912e-05
20.7095,1.46597113407706e-05,6.80531394219585e-05
20.71,1.21003791047397e-05,6.34989968660783e-05
20.7105,9.53583737327768e-06,5.9279045360943e-05
20.711,6.90740134728837e-06,5.62803131331953e-05
20.7115,3.8902911378066e-06,5.49542132748844e-05
20.712,4.92664933960642e-07,5.49164526483489e-05
20.7125,-2.79404783249628e-06,5.46255342657759e-05
20.713,-5.58026972013417e-06,5.25510827300212e-05
20.7135,-8.14642335854963e-06,4.85175833061663e-05
20.714,-1.12373009764149e-05,4.34695898152485e-05
20.7145,-1.52778716778437e-05,3.82633636959669e-05
20.715,-1.97689239409053e-05,3.3154867170687e-05
20.7155,-2.34565351893606e-05,2.83471236886114e-05
20.716,-2.52874673566258e-05,2.45512448889191e-05
20.7165,-2.53052158235555e-05,2.26728618569984e-05
20.717,-2.44657045287757e-05,2.29526340729128e-05
20.7175,-2.35658255661632e-05,2.44628023448343e-05
20.718,-2.25673219619224e-05,2.53931915463569e-05
20.7185,-2.09595136395531e-05,2.41311455054657e-05
20.719,-1.84787392443833e-05,2.05928134177703e-05
20.7195,-1.52989934397109e-05,1.6305303546638e-05
20.72,-1.16180640306654e-05,1.2527428187227e-05
20.7205,-7.24182917488365e-06,8.48839621512578e-06
20.721,-1.78648095038159e-06,2.16551667548595e-06
20.7215,4.57684872584548e-06,-7.52452649523956e-06
20.722,1.07635396145636e-05,-2.02395867893381e-05
20.7225,1.54337964807839e-05,-3.57504944217988e-05
20.723,1.7899155836707e-05,-5.46789929135707e-05
20.7235,1.82257605079076e-05,-7.67340438882536e-05
20.724,1.69232595728128e-05,-9.83607560461292e-05
20.7245,1.5034669789191e-05,-0.000113277196969887
20.725,1.395084366897e-05,-0.00011690743661851
20.7255,1.4205530384842e-05,-0.000111044945265787
20.726,1.46750761055952e-05,-0.000103344893767474
20.7265,1.37187535882796e-05,-0.00010113005716799
20.727,1.09677193790682e-05,-0.000105598130955407
20.7275,7.57158603253397e-06,-0.000112011791276892
20.728,5.05157805993419e-06,-0.000114496693762415
20.7285,4.35405060920425e-06,-0.000110045737834484
20.729,5.78434485535721e-06,-9.90072642831319e-05
20.7295,9.38778736870502e-06,-8.33327033497033e-05
20.73,1.49042967696117e-05,-6.46802292212825e-05
20.7305,2.09379799904257e-05,-4.34105445197715e-05
20.731,2.46738430058208e-05,-1.88913657834188e-05
20.7315,2.3597820292828e-05,8.84718819305173e-06
20.732,1.76023732641889e-05,3.72298213088966e-05
20.7325,8.51560112698516e-06,6.14152247369454e-05
20.733,-2.0801959170411e-06,7.78179980609767e-05
20.7335,-1.3183558245995e-05,8.74566819879361e-05
20.734,-2.30295658658148e-05,9.40756327846397e-05
20.7345,-2.95771455794486e-05,9.85405329595493e-05
20.735,-3.26843553646482e-05,9.74370802781033e-05
20.7355,-3.39936367688196e-05,8.84278365835767e-05
20.736,-3.41435556484618e-05,7.49239670216849e-05
20.7365,-3.16679916901937e-05,6.38121351640526e-05
20.737,-2.53814759886472e-05,5.9525633762037e-05
20.7375,-1.66810628852196e-05,6.10580544510561e-05
20.738,-8.57489130263771e-06,6.38051783909918e-05
20.7385,-2.88824547578822e-06,6.37559274000208e-05
20.739,9.97700530112005e-07,6.04312583652923e-05
20.7395,4.84115013970641e-06,5.61139769547806e-05
20.74,9.41736193031953e-06,5.2610531971999e-05
20.7405,1.38007994399603e-05,4.96977962403628e-05
20.741,1.65733952727641e-05,4.67207382642312e-05
20.7415,1.73715023549379e-05,4.41435729978549e-05
20.742,1.68966379734663e-05,4.26254841766385e-05
20.7425,1.5577146070234e-05,4.15680952560341e-05
20.743,1.29178981403768e-05,3.9666705867484e-05
20.7435,8.59429919708594e-06,3.66424484234599e-05
20.744,3.77785612893202e-06,3.38049699988245e-05
20.7445,6.42974969919929e-07,3.29039311175508e-05
20.745,3.95737249546409e-07,3.45572149233947e-05
20.7455,2.2476710240574e-06,3.76159638992369e-05
20.746,4.5861585725546e-06,3.99072366457242e-05
20.7465,6.72560900449966e-06,3.96635573527216e-05
20.747,8.99009878493535e-06,3.63834707885518e-05
20.7475,1.12571103030737e-05,3.05945446712205e-05
20.748,1.21781723737837e-05,2.32307682121926e-05
20.7485,1.02977461914208e-05,1.5405513377788e-05
20.749,5.62019743755015e-06,8.23241742052645e-06
20.7495,-4.22775704285724e-07,2.04041456089418e-06
20.75,-6.37086232387954e-06,-4.38676560826357e-06
20.7505,-1.15645244939261e-05,-1.33009626142769e-05
20.751,-1.56609024962429e-05,-2.64199227368019e-05
20.7515,-1.79740162020284e-05,-4.3775597157852e-05
20.752,-1.7731565814121e-05,-6.36900564584079e-05
20.7525,-1.49534859618015e-05,-8.34175215531944e-05
20.753,-1.07668784054374e-05,-9.99811940709668e-05
20.7535,-6.51537618835137e-06,-0.000111090039395965
20.754,-2.65478433779064e-06,-0.000116054328423845
20.7545,9.96547962754986e-07,-0.000116456602848884
20.755,4.07150357361106e-06,-0.000115826998951319
20.7555,5.6406616093138e-06,-0.000117494920413472
20.756,5.60573192575898e-06,-0.000121537113690814
20.7565,5.22946788750471e-06,-0.000123855186524012
20.757,5.82574476792424e-06,-0.000119322490320825
20.7575,7.41686893681504e-06,-0.000106675127496692
20.758,8.90816089560731e-06,-9.01911097965308e-05
20.7585,9.2018725117905e-06,-7.5872214176285e-05
20.759,8.01322113607316e-06,-6.56045986645696e-05
20.7595,5.86149294144221e-06,-5.55192391517282e-05
20.76,3.47570239583391e-06,-4.07064253795581e-05
20.7605,1.3387392442796e-06,-2.11216485176435e-05
20.761,-2.63770557409997e-07,-1.78751072499126e-06
20.7615,-1.25146076991527e-06,1.2503107790736e-05
20.762,-2.11761365514341e-06,2.09310985250763e-05
20.7625,-3.74249708482808e-06,2.49336507415737e-05
20.763,-6.23217502847487e-06,2.51239548367304e-05
20.7635,-8.37086177622774e-06,2.15326057495667e-05
20.764,-8.98105145131223e-06,1.54950371131694e-05
20.7645,-8.53508865418715e-06,9.31270958750411e-06
20.765,-8.64189332824075e-06,4.2463390808613e-06
20.7655,-1.01754880482712e-05,1.32859059135158e-07
20.766,-1.2637917312396e-05,-2.87499681150857e-06
20.7665,-1.50120109538811e-05,-3.16682166138835e-06
20.767,-1.64063990397377e-05,9.9697793663632e-07
20.7675,-1.6201236830968e-05,9.26760318772621e-06
20.768,-1.44601807583818e-05,1.92015091229918e-05
20.7685,-1.21043109502259e-05,2.87951944528135e-05
20.769,-1.00828227828748e-05,3.83232401297572e-05
20.7695,-8.38092631601384e-06,4.91871262452903e-05
20.77,-6.04619664645783e-06,6.16272461000091e-05
20.7705,-2.12612632725485e-06,7.4288145918236e-05
20.771,3.28995414198877e-06,8.57457114786105e-05
20.7715,8.7406946543418e-06,9.59053265329638e-05
20.772,1.2348514581343e-05,0.000105722477425553
20.7725,1.33869752601082e-05,0.000115338137952537
20.773,1.27360490664457e-05,0.000122529674086743
20.7735,1.18016281608936e-05,0.000123976567166636
20.774,1.14177260340206e-05,0.000118887535985674
20.7745,1.17589627243296e-05,0.00011063984664559
20.775,1.26455643587695e-05,0.00010375271893351
20.7755,1.36886994547346e-05,9.97367223357998e-05
20.776,1.45654248331169e-05,9.68351145141489e-05
20.7765,1.53157381987574e-05,9.29230552625742e-05
20.777,1.60813751245604e-05,8.70151790536436e-05
20.7775,1.65909791984074e-05,7.83950286898548e-05
20.778,1.6307445254221e-05,6.63678749679161e-05
20.7785,1.50703418560407e-05,5.16045415231694e-05
20.779,1.32177358518734e-05,3.65643715385619e-05
20.7795,1.1171963986982e-05,2.37208777026864e-05
20.78,9.28971351135709e-06,1.36627906367839e-05
20.7805,7.79707032822277e-06,5.13945056877153e-06
20.781,6.18026831975059e-06,-3.52540716261638e-06
20.7815,2.95847757638367e-06,-1.33101969609015e-05
20.782,-2.87169693207505e-06,-2.42254014768911e-05
20.7825,-1.00708104289831e-05,-3.55694391567945e-05
20.783,-1.57799543096578e-05,-4.63744852342293e-05
20.7835,-1.82663950566739e-05,-5.57535724534191e-05
20.784,-1.85172532967968e-05,-6.31148438431354e-05
20.7845,-1.88689532930978e-05,-6.86084822484477e-05
20.785,-2.04127546351169e-05,-7.3577143714215e-05
20.7855,-2.19853938185815e-05,-7.98581797241775e-05
20.786,-2.15691685341601e-05,-8.791409843264e-05
20.7865,-1.83939364771721e-05,-9.59737793030659e-05
20.787,-1.3473750217067e-05,-0.00010169077296535
20.7875,-8.30168977438529e-06,-0.000104559219511702
20.788,-3.54016554140695e-06,-0.00010628293732446
20.7885,9.42251953867192e-07,-0.000108823998652264
20.789,5.33232233653181e-06,-0.000112360471863636
20.7895,9.51538539044905e-06,-0.000115303909001893
20.79,1.30577122613119e-05,-0.000116390102521322
20.7905,1.51934363809577e-05,-0.000116443137744676
20.791,1.51853222992304e-05,-0.000117334340372186
20.7915,1.31406130646424e-05,-0.000118973075536624
20.792,1.02981121148817e-05,-0.000118198727212391
20.7925,8.17130618805515e-06,-0.000111737275570696
20.793,7.41539719734646e-06,-0.000100327494769711
20.7935,7.55244106055089e-06,-8.87320261626359e-05
20.794,7.67526539281026e-06,-8.0453350529149e-05
20.7945,7.44117864137297e-06,-7.29601996646029e-05
20.795,7.35472340529156e-06,-5.99085574218565e-05
20.7955,7.79532454075349e-06,-3.83852322203069e-05
20.796,7.85380654031805e-06,-1.23737963505637e-05
20.7965,5.82581019012147e-06,1.15105684003565e-05
20.797,1.13075003380198e-06,3.02427517714039e-05
20.7975,-4.92911026325414e-06,4.55218747534801e-05
20.798,-1.07809193153887e-05,6.00020738100803e-05
20.7985,-1.6309275469623e-05,7.38629376156247e-05
20.799,-2.22167143640835e-05,8.51115039401271e-05
20.7995,-2.8075604418369e-05,9.26043726913897e-05
20.8,-3.20639294647448e-05,9.82350988564965e-05
20.8005,-3.2804116454704e-05,0.000105447423551515
20.801,-3.07398424138448e-05,0.000115159777413283
20.8015,-2.74369920682584e-05,0.000123711543532123
20.802,-2.40418413653179e-05,0.000125680794287036
20.8025,-2.0655178972233e-05,0.000118940407063297
20.803,-1.67776585585062e-05,0.000106753636169527
20.8035,-1.20081082476275e-05,9.48211806013701e-05
20.804,-6.44236986780337e-06,8.64039702566742e-05
20.8045,-6.522651062238e-07,8.05223150014278e-05
20.805,4.67285992154306e-06,7.4686610300423e-05
20.8055,9.16145395266206e-06,6.85160871511337e-05
20.806,1.28994868352697e-05,6.39625667496073e-05
20.8065,1.61168307695832e-05,6.23593654414441e-05
20.807,1.87574795344528e-05,6.23871123757846e-05
20.8075,2.04434660158141e-05,6.14846943330438e-05
20.808,2.0858266843988e-05,5.85422495016729e-05
20.8085,2.00854384398796e-05,5.41725037641968e-05
20.809,1.85746049458031e-05,4.84929289313243e-05
20.8095,1.68519861365524e-05,4.00458726908408e-05
20.81,1.52824853684934e-05,2.77778833279151e-05
20.8105,1.40355270040113e-05,1.32968346468379e-05
20.811,1.3214590841678e-05,4.95530894081368e-08
20.8115,1.30588084288594e-05,-9.61535767782298e-06
20.812,1.39634671984953e-05,-1.59095622447408e-05
20.8125,1.60535828956417e-05,-2.03344939778316e-05
20.813,1.87868965266134e-05,-2.36393360379755e-05
20.8135,2.13864344394615e-05,-2.5262242393234e-05
20.814,2.34886579061414e-05,-2.46889558747223e-05
20.8145,2.46343764899706e-05,-2.31524155696954e-05
20.815,2.33844049181743e-05,-2.34090170103634e-05
20.8155,1.82115724567836e-05,-2.74170983997472e-05
20.816,9.50028737583634e-06,-3.46379286797382e-05
20.8165,-3.74805458123028e-07,-4.29605324626607e-05
20.817,-9.13317952276831e-06,-5.08092131349099e-05
20.8175,-1.58271476354616e-05,-5.80912934210162e-05
20.818,-2.01463628609748e-05,-6.56511576146285e-05
20.8185,-2.19393076159631e-05,-7.40731211122293e-05
20.819,-2.18282168992279e-05,-8.2723132389533e-05
20.8195,-2.10057428045518e-05,-9.00712696688088e-05
20.82,-1.96928369056647e-05,-9.51460465870557e-05
20.8205,-1.67608251315873e-05,-9.80834587229581e-05
20.821,-1.1665526797499e-05,-9.89274075135145e-05
20.8215,-5.90245720010273e-06,-9.67697930648936e-05
20.822,-1.51400202681553e-06,-9.06947465275971e-05
20.8225,1.19778631079359e-06,-8.1001599410755e-05
20.823,3.14915226815145e-06,-6.91791838702752e-05
20.8235,4.07113224237687e-06,-5.73202308433051e-05
20.824,2.39626592016453e-06,-4.76772839669487e-05
20.8245,-2.09414751313494e-06,-4.15131520065194e-05
20.825,-6.99123654640725e-06,-3.71818718559082e-05
20.8255,-9.35519008168599e-06,-2.99235204790238e-05
20.826,-8.27427480120453e-06,-1.52615483425058e-05
20.8265,-5.06456156955246e-06,6.71567971234027e-06
20.827,-1.83282138742603e-06,3.1089083175693e-05
20.8275,-1.39723779280063e-07,5.22502788548783e-05
20.828,-2.23006305836035e-07,6.7521290109427e-05
20.8285,-9.67473458321121e-07,7.67544510331723e-05
20.829,-9.28402327225208e-07,8.00258147853679e-05
20.8295,3.4095214948831e-07,7.71071430478976e-05
20.83,1.989202482234e-06,6.87727011667405e-05
20.8305,2.70902028962878e-06,5.73691531875944e-05
20.831,1.67772451145362e-06,4.5577760972677e-05
20.8315,-1.08532590254399e-06,3.47733207257082e-05
20.832,-4.88674579303639e-06,2.47481083698134e-05
20.8325,-8.82643195797175e-06,1.50905815985093e-05
20.833,-1.22217506552086e-05,6.67954293447082e-06
20.8335,-1.46874996507282e-05,1.32403436005846e-06
20.834,-1.61669882316835e-05,-2.38472627916218e-07
20.8345,-1.71525410740911e-05,8.24735463564912e-07
20.835,-1.83364858033841e-05,3.39276352081817e-06
20.8355,-1.9423498522208e-05,8.47302258837672e-06
20.836,-1.87814827971261e-05,1.78695618713087e-05
20.8365,-1.50670813177434e-05,3.08726997396836e-05
20.837,-8.90806970415958e-06,4.40929835598134e-05
20.8375,-2.33553514443315e-06,5.52449993388663e-05
20.838,3.1680321682354e-06,6.53019329674175e-05
20.8385,7.50029066211668e-06,7.56865344053375e-05
20.839,1.11205166139087e-05,8.50049284786109e-05
20.8395,1.41303402784765e-05,9.02702993640873e-05
20.84,1.63278341761206e-05,9.0154384741187e-05
20.8405,1.77300357588086e-05,8.53718194029411e-05
20.841,1.87080669209337e-05,7.68787611306314e-05
20.8415,1.9699054886999e-05,6.54707114350059e-05
20.842,2.09682975406127e-05,5.26396718640952e-05
20.8425,2.25613342780477e-05,4.01374419311102e-05
20.843,2.40971518345637e-05,2.83618599577082e-05
20.8435,2.44279295410315e-05,1.59745488079483e-05
20.844,2.21175850517373e-05,1.54442044622995e-06
20.8445,1.70091072364451e-05,-1.46113661067586e-05
20.845,1.09403187030299e-05,-3.05305778325861e-05
20.8455,6.00090965449163e-06,-4.46045977233824e-05
20.846,2.3838581514298e-06,-5.70042240899421e-05
20.8465,-1.0083975036699e-06,-6.86325116030294e-05
20.847,-4.17125372531386e-06,-7.93081223521028e-05
20.8475,-5.76776010301314e-06,-8.83424932840812e-05
20.848,-5.62511074121606e-06,-9.68277292592981e-05
20.8485,-5.81050021409902e-06,-0.000107410061191537
20.849,-7.90842140295718e-06,-0.000120602477052585
20.8495,-1.0338006479971e-05,-0.00013266286113132
20.85,-1.02906169250717e-05,-0.000139063374302276
20.8505,-7.93269422079732e-06,-0.00013968479701116
20.851,-6.57316521891479e-06,-0.00013852201900742
20.8515,-8.4041492257419e-06,-0.000137993390186674
20.852,-1.20551845831439e-05,-0.000135656066964073
20.8525,-1.50214459338761e-05,-0.000127344146640203
20.853,-1.65779784952132e-05,-0.000111583154424081
20.8535,-1.70018916404154e-05,-8.98590755646921e-05
20.854,-1.54265955844159e-05,-6.45157603778673e-05
20.8545,-1.04442714935854e-05,-3.79771568854089e-05
20.855,-2.61016118829801e-06,-1.25525897553999e-05
20.8555,5.12517328816258e-06,1.07810041850114e-05
20.856,9.9764557778989e-06,3.26480169809158e-05
20.8565,1.17396588174782e-05,5.32553002462606e-05
20.857,1.23003321568726e-05,7.12680342805921e-05
20.8575,1.31773680003648e-05,8.5883808832895e-05
20.858,1.41525471588746e-05,9.87516499637365e-05
20.8585,1.41478085127694e-05,0.000112187757750869
20.859,1.26531116862032e-05,0.000125957467986645
20.8595,1.00543144220151e-05,0.000137043979978782
20.86,7.19106944558566e-06,0.000142668581454533
20.8605,5.01913182166676e-06,0.00014295764500492
20.861,4.26345114348512e-06,0.000140309895837565
20.8615,4.79129397954285e-06,0.000136257207800798
20.862,5.40616074783358e-06,0.000129632328284106
20.8625,4.78685094634648e-06,0.000118440407845736
20.863,2.75336285970692e-06,0.000102997630752912
20.8635,2.31393610641409e-07,8.62139061688399e-05
20.864,-2.19411201087097e-06,7.09586378758888e-05
20.8645,-5.3277125537197e-06,5.80970113377552e-05
20.865,-1.05431527536472e-05,4.70501411091377e-05
20.8655,-1.78694929456949e-05,3.71900859378803e-05
20.866,-2.52306900341211e-05,2.81889007646865e-05
20.8665,-2.99416476642234e-05,1.96638968414393e-05
20.867,-3.09437630149255e-05,1.11776035050021e-05
20.8675,-2.93743469332411e-05,2.54733977173788e-06
20.868,-2.71214473138586e-05,-6.03672649676662e-06
20.8685,-2.51726191458003e-05,-1.41152746107789e-05
20.869,-2.31335632744013e-05,-2.11463651801393e-05
20.8695,-1.97368022394676e-05,-2.6645858340411e-05
20.87,-1.38288009992228e-05,-3.02516337139255e-05
20.8705,-5.46494875277195e-06,-3.20439178016199e-05
20.871,3.75721640500352e-06,-3.312103866144e-05
20.8715,1.17647338384783e-05,-3.55682305922877e-05
20.872,1.7548853614493e-05,-4.13499563314895e-05
20.8725,2.15760573533862e-05,-5.10059322991097e-05
20.873,2.48164805222607e-05,-6.32548133468419e-05
20.8735,2.75813853376687e-05,-7.55788545060989e-05
20.874,2.93263378474733e-05,-8.52507658873882e-05
20.8745,2.94952604569131e-05,-9.056680438795e-05
20.875,2.8353909559885e-05,-9.1969614455366e-05
20.8755,2.67135309055682e-05,-9.19511798989895e-05
20.876,2.48970700626405e-05,-9.32309244535831e-05
20.8765,2.2469150140616e-05,-9.69893639070862e-05
20.877,1.92023040103567e-05,-0.000102966876714878
20.8775,1.58220260197719e-05,-0.000110188609592201
20.878,1.32469618421657e-05,-0.000116574281198111
20.8785,1.12799116159011e-05,-0.000119010464740661
20.879,8.71335266229209e-06,-0.000115645606484067
20.8795,4.89344340100058e-06,-0.000107795976781226
20.88,6.22538915065992e-07,-9.81758422200636e-05
20.8805,-2.88711117505337e-06,-8.74352996661674e-05
20.881,-5.57495623194053e-06,-7.35598100456946e-05
20.8815,-8.444696080624e-06,-5.44642926321739e-05
20.882,-1.19941304612084e-05,-3.01274880891046e-05
20.8825,-1.54465440426424e-05,-2.4314280513028e-06
20.883,-1.78600992915562e-05,2.57427291098133e-05
20.8835,-1.93992599001024e-05,5.10563653314965e-05
20.884,-2.09376002898459e-05,7.06671604612612e-05
20.8845,-2.27558519728563e-05,8.35708349560567e-05
20.885,-2.42166059085476e-05,9.08765521644134e-05
20.8855,-2.45543660697636e-05,9.45925122764651e-05
20.886,-2.34687027579948e-05,9.62371516795359e-05
20.8865,-2.09731473217492e-05,9.64179510113572e-05
20.887,-1.71152530694483e-05,9.50777611654459e-05
20.8875,-1.20740000901479e-05,9.16500290255741e-05
20.888,-6.4507976750821e-06,8.54008136606636e-05
20.8885,-1.2566376504759e-06,7.65403661305832e-05
20.889,2.66229560188853e-06,6.70720303776084e-05
20.8895,5.29276193330498e-06,5.97172641383264e-05
20.89,7.3715489301331e-06,5.56460307753319e-05
20.8905,9.55416433173745e-06,5.37154967989353e-05
20.891,1.18412768597571e-05,5.21151353650456e-05
20.8915,1.38029320687135e-05,5.02336593090966e-05
20.892,1.49980108134319e-05,4.85475523043119e-05
20.8925,1.50622252283762e-05,4.72689858745554e-05
20.893,1.38380514298435e-05,4.61380257306755e-05
20.8935,1.18082974520868e-05,4.56737371257842e-05
20.894,1.01368785565043e-05,4.76478658464177e-05
20.8945,9.71315690122893e-06,5.34973642937556e-05
20.895,1.00345949273399e-05,6.22584835352887e-05
20.8955,9.4853875234028e-06,7.04180275660131e-05
20.896,7.03575070984741e-06,7.42143059735283e-05
20.8965,3.30355385328203e-06,7.23752243889328e-05
20.897,-4.54970525653226e-07,6.65649316602928e-05
20.8975,-3.97310575829158e-06,5.92651225374837e-05
20.898,-7.93907432919213e-06,5.1755129523594e-05
20.8985,-1.25128673471477e-05,4.41834460229124e-05
20.899,-1.65965886349344e-05,3.65873559546494e-05
20.8995,-1.89410446946559e-05,2.897005110993e-05
20.9,-1.97432847417023e-05,2.0826598098859e-05
20.9005,-2.06015064210704e-05,1.15471582559725e-05
20.901,-2.25628284470492e-05,1.24263892539426e-06
20.9015,-2.45349663751045e-05,-9.57400398623241e-06
20.902,-2.41884084011605e-05,-2.11713888926617e-05
20.9025,-2.04381099873444e-05,-3.48192645415644e-05
20.903,-1.44961061554073e-05,-5.14896058741118e-05
20.9035,-8.20888528119882e-06,-7.03971927730162e-05
20.904,-1.91861726329958e-06,-8.89735230342468e-05
20.9045,5.33711397616164e-06,-0.00010462930855645
20.905,1.39140189463767e-05,-0.000116714807825896
20.9055,2.28998062847681e-05,-0.000126272019092394
20.906,3.11791195860477e-05,-0.000133723840060822
20.9065,3.78900589905545e-05,-0.000137884984924562
20.907,4.18108735304811e-05,-0.000138017365802459
20.9075,4.1746071376355e-05,-0.000135922860077044
20.908,3.78739913946516e-05,-0.00013484047339845
20.9085,3.16335304229878e-05,-0.000136344579009033
20.909,2.42962728595567e-05,-0.00013870475960059
20.9095,1.67644719900348e-05,-0.00013816558238599
20.91,1.04415508046889e-05,-0.000131623603280552
20.9105,6.8773247248679e-06,-0.000118041882108364
20.911,6.4614798727074e-06,-9.79187621116365e-05
20.9115,8.15648970117826e-06,-7.28822443297945e-05
20.912,1.01352746304391e-05,-4.62570549593142e-05
20.9125,1.02497333966391e-05,-2.21859011681708e-05
20.913,6.84460718965213e-06,-2.60814189206476e-06
20.9135,-4.13008927997338e-08,1.39416515003758e-05
20.914,-8.89437742091483e-06,2.92803913656726e-05
20.9145,-1.84958741939141e-05,4.22337162015547e-05
20.915,-2.84917000403704e-05,4.96855373459972e-05
20.9155,-3.7816331028786e-05,5.06428834188197e-05
20.916,-4.38495415237681e-05,4.84221646030424e-05
20.9165,-4.42987723786819e-05,4.8695963683606e-05
20.917,-3.96017230117695e-05,5.52218698383165e-05
20.9175,-3.27239979671503e-05,6.69960767834099e-05
20.918,-2.65672617411583e-05,7.94470928051693e-05
20.9185,-2.19364474282112e-05,8.8456981411913e-05
20.919,-1.7957685750965e-05,9.31285858969884e-05
20.9195,-1.38105757493023e-05,9.50303191544793e-05
20.92,-9.49180942648421e-06,9.57834854893415e-05
20.9205,-5.18591807487133e-06,9.59162632898243e-05
20.921,-7.43688880239128e-07,9.53607896251974e-05
20.9215,3.880373837927e-06,9.40666314685752e-05
20.922,8.05730573555752e-06,9.19987104947885e-05
20.9225,1.06635379542349e-05,8.89099105284253e-05
20.923,1.08502837421984e-05,8.42017326645967e-05
20.9235,8.77610824242126e-06,7.72150411476981e-05
20.924,5.74379268800753e-06,6.82242724954861e-05
20.9245,3.49861576682983e-06,5.90554728514516e-05
20.925,3.14574292177078e-06,5.18088232880835e-05
20.9255,4.47165665410797e-06,4.66032810474739e-05
20.926,6.04268634429262e-06,4.12496429859649e-05
20.9265,6.15582001891534e-06,3.37447259410282e-05
20.927,4.36113216480654e-06,2.48090123502495e-05
20.9275,2.19206400444921e-06,1.72964830474018e-05
20.928,1.69547838115403e-06,1.30059582577317e-05
20.9285,3.00709842420838e-06,1.07537802936184e-05
20.929,4.2535190966734e-06,8.08733519082431e-06
20.9295,4.25194273802405e-06,4.29909539204416e-06
20.93,4.18124909142839e-06,7.25195655842602e-07
20.9305,5.69790383366857e-06,-1.81249275662136e-06
20.931,8.33028086032196e-06,-4.55993027528041e-06
20.9315,9.94747215019346e-06,-9.22155923200365e-06
20.932,9.46474412811455e-06,-1.57842918958883e-05
20.9325,8.15005600021014e-06,-2.29253071712295e-05
20.933,8.27619823707647e-06,-2.9900746401546e-05
20.9335,1.09594979646968e-05,-3.66618723423776e-05
20.934,1.52164170987031e-05,-4.23600951023246e-05
20.9345,1.87880214481879e-05,-4.56163844698994e-05
20.935,1.99693346121952e-05,-4.70166316042145e-05
20.9355,1.88242869940858e-05,-4.97955485450858e-05
20.936,1.65189783881808e-05,-5.68210418420142e-05
20.9365,1.35906161110845e-05,-6.77592324460201e-05
20.937,9.38102796545863e-06,-7.99204500212133e-05
20.9375,3.24889566670457e-06,-9.07222042657815e-05
20.938,-4.07265735801481e-06,-9.84408368658039e-05
20.9385,-1.03527673541966e-05,-0.000101797293662897
20.939,-1.30094721638712e-05,-0.000100259366969178
20.9395,-1.09440264687559e-05,-9.43582398092982e-05
20.94,-5.72200553326728e-06,-8.48047624164954e-05
20.9405,-5.60095943629736e-07,-7.17296258124485e-05
20.941,2.3269323333187e-06,-5.55481744414895e-05
20.9415,3.24139950829809e-06,-3.80746858414297e-05
20.942,3.74125025572075e-06,-2.19760463557282e-05
20.9425,4.33312365500744e-06,-9.35998512951676e-06
20.943,4.04470016886189e-06,-1.12278375989111e-06
20.9435,2.23170271666803e-06,3.32496339365152e-06
20.944,1.10355670984377e-08,6.43401424051029e-06
20.9445,-7.51435617258129e-07,1.14787000645605e-05
20.945,3.14551118950774e-07,1.98302079029738e-05
20.9455,1.50945918303513e-06,2.97828851793893e-05
20.946,9.48196366041105e-07,3.87643532074388e-05
20.9465,-1.48094966401837e-06,4.56713801751389e-05
20.947,-4.49851991831579e-06,5.03198408671997e-05
20.9475,-7.41035881754339e-06,5.20868493140053e-05
20.948,-1.08995972878052e-05,5.05151960322605e-05
20.9485,-1.56887078427015e-05,4.64445733190288e-05
20.949,-2.11171642277246e-05,4.12103010055384e-05
20.9495,-2.56201326031139e-05,3.50506118993764e-05
20.95,-2.83314224791324e-05,2.75435380883578e-05
20.9505,-2.96388156145427e-05,1.9824441845773e-05
20.951,-3.01165049010003e-05,1.52079803065314e-05
20.9515,-2.93802701946785e-05,1.63869120813398e-05
20.952,-2.64831443045629e-05,2.20301713189921e-05
20.9525,-2.14264587421723e-05,2.73040883714257e-05
20.953,-1.56149806408159e-05,2.84328639095314e-05
20.9535,-1.03585884086908e-05,2.60228791252029e-05
20.954,-5.44230990133139e-06,2.33277565427965e-05
20.9545,2.2379705773187e-07,2.23062180325152e-05
20.955,6.91950267365682e-06,2.25098726485544e-05
20.9555,1.3645948532229e-05,2.30163611380717e-05
20.956,1.91024645635525e-05,2.3772386068628e-05
20.9565,2.27129208674775e-05,2.47738332985981e-05
20.957,2.47792532621453e-05,2.50483510614084e-05
20.9575,2.58112661658031e-05,2.32322302675023e-05
20.958,2.57257019778084e-05,1.88955100212599e-05
20.9585,2.39061000818483e-05,1.28542507652786e-05
20.959,2.02863795114384e-05,6.30839777886312e-06
20.9595,1.61025071010844e-05,6.59576136861896e-08
20.96,1.30373583116266e-05,-5.36434191830905e-06
20.9605,1.15743862890367e-05,-9.36322666154087e-06
20.961,1.05848102937374e-05,-1.14309161329781e-05
20.9615,8.60545528409673e-06,-1.19893233338828e-05
20.962,5.1736237536982e-06,-1.24800580066753e-05
20.9625,9.23120648690052e-07,-1.40264842232178e-05
20.963,-3.07052254784016e-06,-1.60964844525473e-05
20.9635,-5.90197363551182e-06,-1.72411959146171e-05
20.964,-7.47429593768146e-06,-1.73249926810045e-05
20.9645,-8.90004816461123e-06,-1.81169566147509e-05
20.965,-1.16611024227294e-05,-2.08508957662795e-05
20.9655,-1.58216977321233e-05,-2.35856570625884e-05
20.966,-1.94537027562764e-05,-2.20725563178776e-05
20.9665,-2.04083753873083e-05,-1.37644054553809e-05
20.967,-1.8547951660255e-05,-6.917208825738e-07
20.9675,-1.5776461687816e-05,1.1910760471157e-05
20.968,-1.38635981953772e-05,1.97064890654095e-05
20.9685,-1.2671446914108e-05,2.20050231313695e-05
20.969,-1.0727037719634e-05,2.10393526315824e-05
20.9695,-7.18436487165274e-06,1.9221214357319e-05
20.97,-2.69939688974692e-06,1.72258281507631e-05
20.9705,1.63725190171806e-06,1.43643880694422e-05
20.971,5.54981581369614e-06,1.0137842457683e-05
20.9715,9.29626925034526e-06,4.71131822506386e-06
20.972,1.27208440251879e-05,-1.89667911632498e-06
20.9725,1.53440540338278e-05,-9.73643627423032e-06
20.973,1.70819999279551e-05,-1.76863813860949e-05
20.9735,1.81622426494866e-05,-2.38709331922408e-05
20.974,1.85244016308789e-05,-2.81167809808663e-05
20.9745,1.79436014722784e-05,-3.26097915764052e-05
20.975,1.66509647391836e-05,-3.94200258992017e-05
20.9755,1.52804475573172e-05,-4.86184893581419e-05
20.976,1.41921033599947e-05,-5.90415882365511e-05
20.9765,1.33042428870689e-05,-6.92285391428291e-05
20.977,1.26483601214934e-05,-7.7122952898675e-05
20.9775,1.25437950261402e-05,-8.04744307392279e-05
20.978,1.2864474523118e-05,-7.86115907850057e-05
20.9785,1.25669568797285e-05,-7.3142038935354e-05
20.979,1.06018428677283e-05,-6.61294949735846e-05
20.9795,7.23239119711637e-06,-5.79447074238022e-05
20.98,3.90000689029442e-06,-4.75797451448645e-05
20.9805,1.66220878932547e-06,-3.48524768254987e-05
20.981,3.78263971407384e-08,-2.14627888575466e-05
20.9815,-2.55207253556075e-06,-9.49981078850893e-06
20.982,-7.28323841139962e-06,9.30292866137305e-07
20.9825,-1.37401737899837e-05,1.24423350794799e-05
20.983,-2.01078303383442e-05,2.83146002261227e-05
20.9835,-2.46195679604445e-05,4.88071495868807e-05
20.984,-2.68125819190771e-05,6.94180421258815e-05
20.9845,-2.73474129352273e-05,8.39120837439395e-05
20.985,-2.69752675095002e-05,8.96327350917408e-05
20.9855,-2.60520415496208e-05,8.91196073612191e-05
20.986,-2.46675573899368e-05,8.64851357739936e-05
20.9865,-2.25771168984543e-05,8.35184251561529e-05
20.987,-1.91005502859977e-05,7.9783776356155e-05
20.9875,-1.36758633789336e-05,7.50924133990888e-05
20.988,-6.65554965523897e-06,7.04449213816551e-05
20.9885,6.93789949940799e-07,6.6750230293937e-05
20.989,7.08860260403187e-06,6.36825253399704e-05
20.9895,1.20746487868061e-05,6.02078557374016e-05
20.99,1.59210567682291e-05,5.58303832762229e-05
20.9905,1.8680865867752e-05,5.09841426383995e-05
20.991,1.96199521296365e-05,4.63637309925744e-05
20.9915,1.79195887915063e-05,4.22548499228508e-05
20.992,1.38409781191848e-05,3.86771792493678e-05
20.9925,8.81594996638423e-06,3.5735111220255e-05
20.993,4.41264071121674e-06,3.31463141125902e-05
20.9935,1.47223701350881e-06,2.96566916540909e-05
20.994,6.19215605643922e-08,2.40329757154545e-05
20.9945,-2.37838730950096e-07,1.6943545396097e-05
20.995,-1.6319252285562e-07,1.08038460695183e-05
20.9955,-5.67115872358832e-07,7.04189431517464e-06
20.996,-1.87131497142447e-06,4.28224614553696e-06
20.9965,-3.41046992532779e-06,1.00275063186318e-07
20.997,-3.70849060034478e-06,-6.04768015938873e-06
20.9975,-2.1112834593341e-06,-1.27260525545982e-05
20.998,6.36349170715589e-08,-1.90977000705914e-05
20.9985,1.01144169404982e-06,-2.65467855414642e-05
20.999,9.99868254188894e-07,-3.72314994194085e-05
20.9995,2.0509707468978e-06,-5.11047280051734e-05
21,4.82433313500293e-06,-6.49378122997818e-05
21.0005,7.48098124326704e-06,-7.51278914291546e-05
21.001,8.36818246615912e-06,-8.13689014241715e-05
21.0015,8.19667126309971e-06,-8.6664419793072e-05
21.002,8.26223307429223e-06,-9.37667779371018e-05
21.0025,7.66247449193223e-06,-0.000102374205882339
21.003,4.02144042529829e-06,-0.00010975825747943
21.0035,-3.16326620909337e-06,-0.000113430186501159
21.004,-1.12199820386502e-05,-0.000113088152239228
21.0045,-1.65881475404338e-05,-0.000110625997958812
21.005,-1.75433656661201e-05,-0.000108595529540256
21.0055,-1.4547180310739e-05,-0.000107956273799304
21.006,-9.00284627826833e-06,-0.000106711638232748
21.0065,-2.48955393687617e-06,-0.000101407474339263
21.007,3.25833752836927e-06,-9.05754847656321e-05
21.0075,6.64427677531865e-06,-7.59272531923437e-05
21.008,6.9214064918557e-06,-5.9572844299596e-05
21.0085,4.60578639071327e-06,-4.11288265435212e-05
21.009,1.30569351281927e-06,-1.86285878440875e-05
21.0095,-9.4789173623201e-07,8.38493105499198e-06
21.01,-8.18064154666248e-07,3.76292209049349e-05
21.0105,1.39303334194098e-06,6.53487267936114e-05
21.011,3.98816205638295e-06,8.80313799436061e-05
21.0115,5.26365338642415e-06,0.000103816961844136
21.012,4.71995947849389e-06,0.000113638641549887
21.0125,3.1141864091625e-06,0.00012075822814455
21.013,1.61128559982977e-06,0.000128074455594799
21.0135,7.66275318133173e-07,0.000135752174110516
21.014,-3.03907981505568e-08,0.00014176762509458
21.0145,-2.0090984075328e-06,0.000144123573853472
21.015,-5.39574551636177e-06,0.000141932109348226
21.0155,-8.28019956461079e-06,0.000135174351178448
21.016,-7.87486702708446e-06,0.000124451097418941
21.0165,-3.51462466110901e-06,0.000110638609797989
21.017,2.06173065450381e-06,9.42363148974811e-05
21.0175,5.27227470318302e-06,7.55947014802356e-05
21.018,5.38653560304502e-06,5.60345464448685e-05
21.0185,4.84745770831978e-06,3.76727200041311e-05
21.019,6.03610117191494e-06,2.15044108214057e-05
21.0195,8.69995802485509e-06,6.52838352049797e-06
21.02,1.07242329080656e-05,-8.5170637591821e-06
21.0205,1.05670368576781e-05,-2.31747826387168e-05
21.021,8.53792913439035e-06,-3.57204318027248e-05
21.0215,6.15255093640545e-06,-4.52419541449289e-05
21.022,4.61448304294873e-06,-5.27428411332502e-05
21.0225,3.83812351840656e-06,-6.04061220871146e-05
21.023,2.85724364052776e-06,-6.99441180906761e-05
21.0235,1.29017606577984e-06,-8.09450681681739e-05
21.024,2.93752518912138e-07,-9.03016219817513e-05
21.0245,1.54482915028361e-06,-9.41221608630469e-05
21.025,5.01772352725171e-06,-9.116152393388e-05
21.0255,8.34077821418107e-06,-8.38215062780651e-05
21.026,8.95647968012953e-06,-7.52084682339265e-05
21.0265,6.64205766034482e-06,-6.63869177883323e-05
21.027,3.38301553461164e-06,-5.73643736711114e-05
21.0275,9.83812250360488e-07,-4.89536487367779e-05
21.028,-6.30398914167537e-07,-4.16156713764972e-05
21.0285,-2.75451890866964e-06,-3.34937649517121e-05
21.029,-6.12728286904152e-06,-2.20966441716604e-05
21.0295,-1.02443065525127e-05,-8.35318509859589e-06
21.03,-1.43472484666851e-05,2.5173141784606e-06
21.0305,-1.86570831994582e-05,5.15738239925975e-06
21.031,-2.41400424077684e-05,-9.30350954198114e-07
21.0315,-3.08276285331605e-05,-1.0526521117239e-05
21.032,-3.67703840463504e-05,-1.67729969071401e-05
21.0325,-3.93648060607607e-05,-1.640274781275e-05
21.033,-3.77572984413074e-05,-1.11766477940384e-05
21.0335,-3.33787702438995e-05,-4.29448915305069e-06
21.034,-2.81653094170983e-05,3.81472684251752e-06
21.0345,-2.29963417398787e-05,1.5026978567789e-05
21.035,-1.79677307330913e-05,2.91695747485888e-05
21.0355,-1.3281634814318e-05,4.20116195050324e-05
21.036,-9.14497702051109e-06,4.85869059779953e-05
21.0365,-5.0209318743072e-06,4.74264802221147e-05
21.037,3.36368523186473e-07,4.07512146721922e-05
21.0375,7.67364412507299e-06,3.17965793597326e-05
21.038,1.60841913678735e-05,2.30537280223739e-05
21.0385,2.33768300847193e-05,1.60711139868725e-05
21.039,2.78848520382696e-05,1.14958645687263e-05
21.0395,2.98621663800511e-05,9.13700736705566e-06
21.04,3.08741130369181e-05,8.21660678995464e-06
21.0405,3.19304154203329e-05,7.62966165598062e-06
21.041,3.26025438527519e-05,6.56632091860095e-06
21.0415,3.19921070505028e-05,5.36663468462536e-06
21.042,3.0118752121064e-05,5.10572888502237e-06
21.0425,2.80444905963862e-05,5.75200387002065e-06
21.043,2.6762225946997e-05,5.52258195688251e-06
21.0435,2.62116741611303e-05,3.05865916387816e-06
21.044,2.54452063283994e-05,3.90833113416057e-08
21.0445,2.36638129774845e-05,6.57665363365971e-07
21.045,2.09291337415769e-05,7.71494718189584e-06
21.0455,1.77085732033542e-05,1.91395155702067e-05
21.046,1.38613511801563e-05,2.91170403495816e-05
21.0465,8.53877449981609e-06,3.33576634417071e-05
21.047,1.29799388743144e-06,3.28210635615424e-05
21.0475,-7.00684624828021e-06,3.14978452496847e-05
21.048,-1.47328841177077e-05,3.11531431332243e-05
21.0485,-2.07261847543712e-05,2.96888903586942e-05
21.049,-2.48985863117453e-05,2.4662781613082e-05
21.0495,-2.76293806700815e-05,1.6733947195398e-05
21.05,-2.89609473517039e-05,8.66250605063178e-06
21.0505,-2.86671138120589e-05,2.0173015074746e-06
21.051,-2.69069691125147e-05,-3.74198055591679e-06
21.0515,-2.42808806208558e-05,-9.43572590699172e-06
21.052,-2.1073333343615e-05,-1.48800355874642e-05
21.0525,-1.6794676515995e-05,-1.946185107417e-05
21.053,-1.07750609358019e-05,-2.28222851078323e-05
21.0535,-3.20758352208501e-06,-2.46453649212358e-05
21.054,4.48484299880301e-06,-2.45681961363477e-05
21.0545,1.05008063779285e-05,-2.27020571299104e-05
21.055,1.41175752727204e-05,-1.98800202705389e-05
21.0555,1.62582747424553e-05,-1.73294382983769e-05
21.056,1.8404211534541e-05,-1.63393874324163e-05
21.0565,2.10124681059621e-05,-1.75610079537642e-05
21.057,2.31693033220528e-05,-1.94690258281374e-05
21.0575,2.36122444174601e-05,-1.81326762620394e-05
21.058,2.17529728355248e-05,-1.07277150036318e-05
21.0585,1.77869066334137e-05,2.01911048597063e-07
21.059,1.23242854712554e-05,7.94636218327714e-06
21.0595,6.23026180610234e-06,8.18969904952792e-06
21.06,5.96867797646855e-07,3.08950389628567e-06
21.0605,-3.56724302833359e-06,-2.01323423258866e-06
21.061,-5.91456628356472e-06,-4.49562944634753e-06
21.0615,-7.08922444650451e-06,-5.77299341654475e-06
21.062,-8.29489097070111e-06,-7.92054112915232e-06
21.0625,-1.02879292314584e-05,-1.09896009797308e-05
21.063,-1.2804141928905e-05,-1.37728057370646e-05
21.0635,-1.52069679553308e-05,-1.57237893051648e-05
21.064,-1.7700136733748e-05,-1.73691980555024e-05
21.0645,-2.14065926092421e-05,-1.95209296459066e-05
21.065,-2.68335797255075e-05,-2.27033600149535e-05
21.0655,-3.26144590652405e-05,-2.69159542844366e-05
21.066,-3.63545141076731e-05,-3.12851065994662e-05
21.0665,-3.66444383513351e-05,-3.39832724726524e-05
21.067,-3.39474644290739e-05,-3.30380723704577e-05
21.0675,-2.97480351938947e-05,-2.76477461655687e-05
21.068,-2.52097764142011e-05,-1.87476770034445e-05
21.0685,-2.06168467093016e-05,-8.21620315596908e-06
21.069,-1.57663259736442e-05,2.31453606729465e-06
21.0695,-1.05175023790682e-05,1.18480011930733e-05
21.07,-4.85199154307867e-06,2.00041562615056e-05
21.0705,1.25980717335453e-06,2.748425117595e-05
21.071,7.73600015604328e-06,3.60065130787389e-05
21.0715,1.42366285343592e-05,4.61613214977144e-05
21.072,2.02112684075667e-05,5.50014671564114e-05
21.0725,2.49106576974002e-05,5.7393132244653e-05
21.073,2.75218714796903e-05,5.08902396155234e-05
21.0735,2.77891478136617e-05,3.83254733526028e-05
21.074,2.64621780727072e-05,2.46312186719255e-05
21.0745,2.4685888629523e-05,1.21976066249392e-05
21.075,2.30585339640534e-05,6.88906506914682e-07
21.0755,2.16769322139089e-05,-9.68700757101259e-06
21.076,2.07266990613289e-05,-1.70977625592675e-05
21.0765,2.03081230362413e-05,-2.06332818941962e-05
21.077,1.98556321714024e-05,-2.2182241653961e-05
21.0775,1.84722290834849e-05,-2.45552638612249e-05
21.078,1.59143217681277e-05,-2.82497903388108e-05
21.0785,1.28032964652264e-05,-3.10442316108319e-05
21.079,9.87795614621059e-06,-3.09514124220643e-05
21.0795,7.31128418153132e-06,-2.89555434829375e-05
21.08,4.51532535421322e-06,-2.81775251007534e-05
21.0805,3.17894688450655e-07,-3.03211340891784e-05
21.081,-6.11199653404243e-06,-3.34646813139571e-05
21.0815,-1.38464945226411e-05,-3.36518744178992e-05
21.082,-2.02497649366861e-05,-2.85655510888022e-05
21.0825,-2.33643246237254e-05,-1.96110717600953e-05
21.083,-2.38117119482111e-05,-1.04068862999201e-05
21.0835,-2.33780398778856e-05,-3.27857317512164e-06
21.084,-2.23091127331022e-05,2.31685887411175e-06
21.0845,-1.93165255428775e-05,7.68237671414224e-06
21.085,-1.39527382519303e-05,1.22297560757173e-05
21.0855,-7.55654241549604e-06,1.41996497097879e-05
21.086,-1.61118389443857e-06,1.35881204928827e-05
21.0865,3.84359815914751e-06,1.27571714279451e-05
21.087,9.70166104634026e-06,1.38365941523856e-05
21.0875,1.61693008745883e-05,1.67537872763639e-05
21.088,2.20903846341943e-05,2.02619171214061e-05
21.0885,2.57544781325746e-05,2.3787388092988e-05
21.089,2.60205162802828e-05,2.74915886013345e-05
21.0895,2.27650531312107e-05,3.11138005408943e-05
21.09,1.69173170674108e-05,3.35653324422568e-05
21.0905,1.03485855516225e-05,3.38829594745608e-05
21.091,5.11294147158507e-06,3.26668614068365e-05
21.0915,2.23991906361577e-06,3.25155481399281e-05
21.092,1.40377201101509e-06,3.63438833898331e-05
21.0925,1.7997742753688e-06,4.45552707750585e-05
21.093,2.85517436297819e-06,5.40796451980587e-05
21.0935,3.97338323325441e-06,6.08414341880413e-05
21.094,4.26143840150957e-06,6.32678047750288e-05
21.0945,3.03763464326313e-06,6.30749254116417e-05
21.095,4.13857949756116e-07,6.26895275361719e-05
21.0955,-2.83897516937671e-06,6.24100104819331e-05
21.096,-5.83357499370318e-06,6.03118312256544e-05
21.0965,-8.05994366107112e-06,5.44818969677463e-05
21.097,-9.85211356675581e-06,4.48874394617402e-05
21.0975,-1.24329538356956e-05,3.32629559704415e-05
21.098,-1.6846957643115e-05,2.16888467556004e-05
21.0985,-2.25311468292149e-05,1.1410671878375e-05
21.099,-2.74448021522597e-05,2.52622844574043e-06
21.0995,-2.9889344821561e-05,-5.97456100733641e-06
21.1,-2.97799633346688e-05,-1.5926561805715e-05
21.1005,-2.80526054859176e-05,-2.8735860490519e-05
21.101,-2.54579760920962e-05,-4.37874943693643e-05
21.1015,-2.22250850529753e-05,-5.8821294107179e-05
21.102,-1.83751218299034e-05,-7.2422704897131e-05
21.1025,-1.38175765938795e-05,-8.52859400565999e-05
21.103,-8.2174602409178e-06,-9.82858380750062e-05
21.1035,-1.17098186018123e-06,-0.000110105542182499
21.104,7.29247457669609e-06,-0.000117848498034842
21.1045,1.64263488895022e-05,-0.00011986374578036
21.105,2.50177154326063e-05,-0.000117324366016522
21.1055,3.18898889734849e-05,-0.000112930379666966
21.106,3.61891291296559e-05,-0.000108185008198116
21.1065,3.73898241824485e-05,-0.000101883150919611
21.107,3.52979113158307e-05,-9.13814702612684e-05
21.1075,3.01224618182865e-05,-7.57039432337665e-05
21.108,2.25307366847361e-05,-5.75106494227405e-05
21.1085,1.37837922665794e-05,-4.15172858866498e-05
21.109,5.67484771808488e-06,-3.02240560905861e-05
21.1095,-3.45945619983389e-07,-2.12682579892614e-05
21.11,-4.22368702195523e-06,-9.99366321163248e-06
21.1105,-6.94028240269835e-06,5.15386952660202e-06
21.111,-9.03473930565501e-06,2.10069193477806e-05
21.1115,-1.01238870566705e-05,3.39324267895981e-05
21.112,-9.91547007427961e-06,4.42912520349024e-05
21.1125,-8.95779504263396e-06,5.54865529221348e-05
21.113,-8.21119877387503e-06,6.9304170540388e-05
21.1135,-8.46406782632745e-06,8.32310603776696e-05
21.114,-1.03110923354059e-05,9.23273285371528e-05
21.1145,-1.39998998228659e-05,9.36618373182838e-05
21.115,-1.88049076800951e-05,8.9226730997099e-05
21.1155,-2.29782475372271e-05,8.41641412021439e-05
21.116,-2.49191951281187e-05,8.16654457483869e-05
21.1165,-2.43873102498475e-05,8.02822508033689e-05
21.117,-2.23551209387724e-05,7.69098724262765e-05
21.1175,-1.98009773635369e-05,7.13901399141475e-05
21.118,-1.68613890425938e-05,6.66567177030327e-05
21.1185,-1.30863525259797e-05,6.45400661219006e-05
21.119,-8.22192744953829e-06,6.29915224087575e-05
21.1195,-2.4831830936048e-06,5.82277087331519e-05
21.12,3.88191064584952e-06,4.89570056941034e-05
21.1205,1.08740630849387e-05,3.77259727167003e-05
21.121,1.82730040125992e-05,2.8156262811849e-05
21.1215,2.51353667665618e-05,2.1294810954843e-05
21.122,3.02578765174991e-05,1.4930757946637e-05
21.1225,3.32078456140858e-05,6.31537307249922e-06
21.123,3.45631406006955e-05,-5.10242057067366e-06
21.1235,3.50316908630525e-05,-1.79862761666663e-05
21.124,3.45762417835816e-05,-3.13715917318465e-05
21.1245,3.25346886796551e-05,-4.54750455654566e-05
21.125,2.85399863806571e-05,-6.01125096851726e-05
21.1255,2.33227381450634e-05,-7.3195437741674e-05
21.126,1.85482369949702e-05,-8.17292279069367e-05
21.1265,1.55441348681882e-05,-8.46424666460457e-05
21.127,1.3923875161785e-05,-8.43420394425549e-05
21.1275,1.1664597341685e-05,-8.4860888886252e-05
21.128,7.00604508966958e-06,-8.80428133410894e-05
21.1285,3.71209578631063e-07,-9.15911317909683e-05
21.129,-5.94046940182286e-06,-9.1042022076678e-05
21.1295,-1.00812579970272e-05,-8.36391266238306e-05
21.13,-1.2316062299878e-05,-7.03826465265958e-05
21.1305,-1.42289219061685e-05,-5.47037295993353e-05
21.131,-1.67416212081591e-05,-3.95106503428824e-05
21.1315,-1.93730386738691e-05,-2.56877975855244e-05
21.132,-2.13254572461113e-05,-1.32227396308567e-05
21.1325,-2.27415040500395e-05,-2.71318306498618e-06
21.133,-2.44474353667701e-05,5.33005243290803e-06
21.1335,-2.65850133691178e-05,1.21117833226034e-05
21.134,-2.80851892044806e-05,1.98633763218696e-05
21.1345,-2.77810465781677e-05,2.92069009329349e-05
21.135,-2.5672562829931e-05,3.82179282638611e-05
21.1355,-2.27879067658328e-05,4.43555918476221e-05
21.136,-2.00229519410389e-05,4.66789428000146e-05
21.1365,-1.7252100879213e-05,4.63063454079398e-05
21.137,-1.33956820189066e-05,4.55665081475835e-05
21.1375,-7.49086622491307e-06,4.67248515793086e-05
21.138,-2.21200686367915e-09,5.05452375792289e-05
21.1385,7.16168444988212e-06,5.54671503179485e-05
21.139,1.22935929084021e-05,5.86551440947064e-05
21.1395,1.53175536519674e-05,5.84502778841949e-05
21.14,1.73230531598163e-05,5.5523858748348e-05
21.1405,1.90350127013871e-05,5.13136235071172e-05
21.141,2.01391434340327e-05,4.60986350636565e-05
21.1415,1.99412927728919e-05,3.94708680677329e-05
21.142,1.82612639934127e-05,3.21229859280048e-05
21.1425,1.55479548352923e-05,2.59172651391009e-05
21.143,1.23995419642846e-05,2.19761584903314e-05
21.1435,9.26044799253367e-06,1.94369035449324e-05
21.144,6.42042249522036e-06,1.64966467428136e-05
21.1445,3.90550206334149e-06,1.23703370767987e-05
21.145,1.38092172922746e-06,7.85346614017641e-06
21.1455,-1.42155094640861e-06,4.30344669559387e-06
21.146,-4.11988210330902e-06,2.88604730250848e-06
21.1465,-6.0575044069775e-06,4.66155555949794e-06
21.147,-7.4935331835249e-06,9.79099272756966e-06
21.1475,-9.7860243187257e-06,1.56694387631341e-05
21.148,-1.38435980181148e-05,1.71279631318931e-05
21.1485,-1.87984893911054e-05,1.02496016013532e-05
21.149,-2.27277439080815e-05,-4.00866905770342e-06
21.1495,-2.43659611909117e-05,-2.07750327493744e-05
21.15,-2.37776664046798e-05,-3.55748064722854e-05
21.1505,-2.19186194121714e-05,-4.71038164405299e-05
21.151,-1.99755507688348e-05,-5.62503037783365e-05
21.1515,-1.84762230105386e-05,-6.34941928556569e-05
21.152,-1.65240687651186e-05,-6.77929980145313e-05
21.1525,-1.25302572545345e-05,-6.78722611471911e-05
21.153,-6.23210363259709e-06,-6.41941967143465e-05
21.1535,5.25751387796043e-07,-5.92201553265118e-05
21.154,5.51931896140474e-06,-5.54758281742307e-05
21.1545,8.32391549821367e-06,-5.33321033217924e-05
21.155,1.0399186351436e-05,-5.081450498138e-05
21.1555,1.32843109672187e-05,-4.5680674901132e-05
21.156,1.71244947651338e-05,-3.75451039075729e-05
21.1565,2.09040788877098e-05,-2.78646319156936e-05
21.157,2.37034123076806e-05,-1.81548967427633e-05
21.1575,2.54358384254989e-05,-8.67360761264098e-06
21.158,2.64775478175967e-05,1.0767827103568e-06
21.1585,2.69834412109766e-05,1.0988204987406e-05
21.159,2.67637072433948e-05,2.00608355619743e-05
21.1595,2.55731846212498e-05,2.7473578370463e-05
21.16,2.32329324690067e-05,3.33220929333235e-05
21.1605,1.96191215111409e-05,3.80759428652968e-05
21.161,1.49091855190826e-05,4.18184175609903e-05
21.1615,9.87949453081621e-06,4.42264787397412e-05
21.162,5.63245238790476e-06,4.48408347796467e-05
21.1625,2.81593330969961e-06,4.31797880604894e-05
21.163,1.12254673987997e-06,3.89557718581764e-05
21.1635,-5.34398262368372e-07,3.23604027818271e-05
21.164,-3.39881883948232e-06,2.40943596712317e-05
21.1645,-7.99826171988525e-06,1.52932562224326e-05
21.165,-1.34769762274552e-05,7.37790775620253e-06
21.1655,-1.81283557983089e-05,1.35196991625111e-06
21.166,-2.09996978800971e-05,-3.02052806133349e-06
21.1665,-2.2615448485346e-05,-6.70118902687916e-06
21.167,-2.38031701731349e-05,-9.70200509570326e-06
21.1675,-2.43503075138601e-05,-1.07083849356849e-05
21.168,-2.33378723691937e-05,-8.936307658001e-06
21.1685,-2.04352859233827e-05,-5.49327428888276e-06
21.169,-1.62129774978864e-05,-1.95158768792315e-06
21.1695,-1.11398908711795e-05,1.75269149897107e-06
21.17,-4.91950828664819e-06,6.76762218075853e-06
21.1705,2.6659161992294e-06,1.29520371107824e-05
21.171,1.070997436601e-05,1.84092515620867e-05
21.1715,1.78468583868517e-05,2.16344489626705e-05
21.172,2.37948483015096e-05,2.2926434715127e-05
21.1725,2.92553110810896e-05,2.31242931119326e-05
21.173,3.42211082947804e-05,2.20075690118489e-05
21.1735,3.74016417386393e-05,1.87983595993822e-05
21.174,3.76529975150498e-05,1.36120772336196e-05
21.1745,3.51824050939963e-05,7.58151913013092e-06
21.175,3.09696887333291e-05,1.74451355005873e-06
21.1755,2.56743389188816e-05,-3.69511247884101e-06
21.176,1.96548121078237e-05,-9.1067435897866e-06
21.1765,1.36310261045106e-05,-1.47262151650378e-05
21.177,8.40967063482315e-06,-2.01692878326966e-05
21.1775,3.64534326665597e-06,-2.45538186930116e-05
21.178,-2.27788584186924e-06,-2.70025232927309e-05
21.1785,-1.01651490416791e-05,-2.67134319366323e-05
21.179,-1.81724462484173e-05,-2.26989108105249e-05
21.1795,-2.31925930176576e-05,-1.45992526248783e-05
21.18,-2.43619166940918e-05,-4.51268537387193e-06
21.1805,-2.44679900728717e-05,2.94815848423193e-06
21.181,-2.72316477242561e-05,3.91051993522811e-06
21.1815,-3.32588480493234e-05,-1.29077646152772e-06
21.182,-3.92246209548369e-05,-8.57146592930241e-06
21.1825,-4.13102873009057e-05,-1.39223516338189e-05
21.183,-3.89586705904799e-05,-1.61525992854814e-05
21.1835,-3.47397035300019e-05,-1.62035533302901e-05
21.184,-3.10228641499928e-05,-1.50696855630741e-05
21.1845,-2.78408223382861e-05,-1.28976115854123e-05
21.185,-2.40754018007276e-05,-9.24206875051109e-06
21.1855,-1.9511270108581e-05,-3.58750897090204e-06
21.186,-1.4895129255868e-05,3.78188986649183e-06
21.1865,-1.06558666100172e-05,1.09436705010352e-05
21.187,-6.54908369291406e-06,1.49735901655953e-05
21.1875,-2.37911928562293e-06,1.41976971631194e-05
21.188,1.72383015195257e-06,9.90042466757741e-06
21.1885,5.77457532139648e-06,5.47551942118122e-06
21.189,1.0010485058318e-05,3.66334671751949e-06
21.1895,1.42566268308817e-05,4.70317381048625e-06
21.19,1.76728761125931e-05,7.32564179626903e-06
21.1905,1.94586571823084e-05,1.11121421127522e-05
21.191,1.9555455474414e-05,1.69148466338084e-05
21.1915,1.84526731328225e-05,2.47002869442381e-05
21.192,1.66498787411403e-05,3.21664646282921e-05
21.1925,1.46165737780535e-05,3.67006950167263e-05
21.193,1.29425177407452e-05,3.81372352486873e-05
21.1935,1.20559598174612e-05,3.81614965670604e-05
21.194,1.18749279558789e-05,3.7157861197945e-05
21.1945,1.20212747362891e-05,3.32360600927238e-05
21.195,1.22343203364891e-05,2.48806239761594e-05
