Time_s,BCL_Filtered,BCC_Filtered
0,1.01428448636229e-06,2.24772962786514e-07
0.0005,2.20859218149448e-06,-6.1337875616464e-06
0.001,3.97672643560741e-06,-1.19973024380308e-05
0.0015,5.68026324894835e-06,-1.73071858945989e-05
0.002,6.20283660914142e-06,-2.17296962709702e-05
0.0025,5.47504182130804e-06,-2.35332474109043e-05
0.003,4.52370619392677e-06,-2.00701241744388e-05
0.0035,4.21816856331311e-06,-1.03381292382462e-05
0.004,4.60927669227402e-06,3.0966445818378e-06
0.0045,5.35848326122972e-06,1.56758834862338e-05
0.005,6.12889323170512e-06,2.46182749451599e-05
0.0055,6.50502670085862e-06,3.05729037757123e-05
0.006,6.18477364284409e-06,3.56776718891035e-05
0.0065,5.54812881940169e-06,4.1059985639791e-05
0.007,5.57284989047095e-06,4.628123840429e-05
0.0075,6.74765197771519e-06,4.97946605384277e-05
0.008,8.2759411033999e-06,4.94999982532745e-05
0.0085,8.75389300329639e-06,4.42068255219203e-05
0.009,7.5563244227527e-06,3.53062489291597e-05
0.0095,5.26644472262428e-06,2.62076459095666e-05
0.01,2.90342728509615e-06,1.9648980436208e-05
0.0105,1.12988381674717e-06,1.60088482871529e-05
0.011,1.52112765963014e-07,1.42885641078311e-05
0.0115,-1.01254681274365e-07,1.40098918149423e-05
0.012,4.94478362028587e-08,1.55506363775381e-05
0.0125,1.25390311092294e-07,1.87330790595709e-05
0.013,-2.31652765207054e-07,2.18628630257478e-05
0.0135,-1.17711831764858e-06,2.29285323044051e-05
0.014,-2.844028141041e-06,2.15833270246978e-05
0.0145,-5.22410998889276e-06,1.91430708465187e-05
0.015,-7.72143995095271e-06,1.66872114962797e-05
0.0155,-9.25729046022119e-06,1.42938751510758e-05
0.016,-9.18179246085458e-06,1.25154554064288e-05
0.0165,-7.87332104475017e-06,1.32359189269941e-05
0.017,-6.21023832757577e-06,1.76428494607911e-05
0.0175,-4.74817328977806e-06,2.35776764296861e-05
0.018,-3.71429669397155e-06,2.60871362659027e-05
0.0185,-3.45948917443025e-06,2.12738886276076e-05
0.019,-4.29702936281302e-06,9.47356479592091e-06
0.0195,-5.80579243292427e-06,-5.65490062993435e-06
0.02,-6.80232532723398e-06,-2.08833036381857e-05
0.0205,-6.44043544053712e-06,-3.55461634070904e-05
0.021,-5.1716418760096e-06,-5.00525816403353e-05
0.0215,-4.1574773038903e-06,-6.35441346710002e-05
0.022,-3.74652293362294e-06,-7.38854085220967e-05
0.0225,-3.09188214571729e-06,-7.95710834504591e-05
0.023,-1.57289451588443e-06,-8.12216255745536e-05
0.0235,-1.14977484297806e-07,-8.14552527605964e-05
0.024,-3.51464646163009e-07,-8.31447479792372e-05
0.0245,-2.39105887192132e-06,-8.69798708639414e-05
0.025,-4.20069151788247e-06,-9.0513834961725e-05
0.0255,-3.83879226357026e-06,-9.00491866000167e-05
0.026,-1.76235831135157e-06,-8.32468921613273e-05
0.0265,2.52737055188881e-08,-6.94555606986233e-05
0.027,7.72286581444022e-07,-4.87445735706485e-05
0.0275,1.59281431488186e-06,-2.27379326015217e-05
0.028,3.11489092639689e-06,3.82580701931509e-06
0.0285,3.96754769613421e-06,2.50130054363522e-05
0.029,2.59551856316652e-06,3.86426006736959e-05
0.0295,-2.24440607053248e-07,4.82192533228324e-05
0.03,-1.80278817617102e-06,5.88126825141747e-05
0.0305,-2.54471325698676e-07,7.1525681761749e-05
0.031,3.8942805580932e-06,8.26379027432763e-05
0.0315,8.44322794141206e-06,8.75233093749554e-05
0.032,1.10752798219667e-05,8.45196478837489e-05
0.0325,1.05178397530527e-05,7.534887789914e-05
0.033,7.24837108477044e-06,6.32157957836415e-05
0.0335,3.31464990380514e-06,5.13386165897052e-05
0.034,7.73512708953884e-07,4.2222870625694e-05
0.0345,3.31114326097565e-08,3.64815065830936e-05
0.035,2.21375661438715e-07,3.22302166519281e-05
0.0355,1.2034338276429e-06,2.70152854744607e-05
0.036,4.30214021291108e-06,2.05459506074489e-05
0.0365,1.04353433332293e-05,1.44275621259564e-05
0.037,1.82004456536735e-05,9.36706878976803e-06
0.0375,2.46083260267408e-05,4.25838748058991e-06
0.038,2.7354586980093e-05,-1.68608746884443e-06
0.0385,2.57457941868724e-05,-7.47827629317224e-06
0.039,2.01825936826306e-05,-1.17404897172567e-05
0.0395,1.21348329295506e-05,-1.45717675002105e-05
0.04,4.34377397944353e-06,-1.74871700784504e-05
0.0405,-6.59970957539399e-07,-2.19138177230623e-05
0.041,-2.80833653274279e-06,-2.76820967219053e-05
0.0415,-4.18550732760094e-06,-3.27386316274456e-05
0.042,-6.02941645198812e-06,-3.49835980772251e-05
0.0425,-7.2870842086176e-06,-3.48760628288234e-05
0.043,-6.99944379709849e-06,-3.54806328326131e-05
0.0435,-6.81398067441654e-06,-3.93138004809675e-05
0.044,-9.38091606956294e-06,-4.56430256186369e-05
0.0445,-1.4687815856706e-05,-5.12365062466784e-05
0.045,-1.97635891576319e-05,-5.30874050376059e-05
0.0455,-2.21289783639147e-05,-4.98730892302146e-05
0.046,-2.19592859228477e-05,-4.15721030677522e-05
0.0465,-2.05560861805584e-05,-2.9217703746706e-05
0.047,-1.83397343455523e-05,-1.5438106586628e-05
0.0475,-1.5168786308744e-05,-3.65800541632566e-06
0.048,-1.14724061579683e-05,4.94694559303229e-06
0.0485,-8.0461376851425e-06,1.31961514191308e-05
0.049,-5.23273878792756e-06,2.47790661768732e-05
0.0495,-3.086440184346e-06,3.92437176305021e-05
0.05,-2.09802664542548e-06,5.18295997422659e-05
0.0505,-2.92202053367655e-06,5.87685512344405e-05
0.051,-5.14743369487161e-06,6.09906536797603e-05
0.0515,-6.93765103810873e-06,6.17097144287012e-05
0.052,-6.41993185127757e-06,6.2192463247287e-05
0.0525,-3.33460049199611e-06,6.14866076912017e-05
0.053,8.76648338321029e-07,5.88148929325441e-05
0.0535,4.47294998671853e-06,5.40755546635537e-05
0.054,6.81904848273214e-06,4.67412672513699e-05
0.0545,8.59205046925762e-06,3.63268910925637e-05
0.055,1.07355109067603e-05,2.35883940954982e-05
0.0555,1.31819653242288e-05,9.62288134948548e-06
0.056,1.46960693849199e-05,-5.69273048944579e-06
0.0565,1.41008583763439e-05,-2.28278300218381e-05
0.057,1.14149074401692e-05,-4.06789354022933e-05
0.0575,7.5383694550573e-06,-5.67687790290436e-05
0.058,3.29313577191121e-06,-6.88480109885636e-05
0.0585,-6.58232666451861e-07,-7.56180606284833e-05
0.059,-3.43231964310517e-06,-7.68960754697853e-05
0.0595,-4.45784777980265e-06,-7.39031111697817e-05
0.06,-4.45312439474213e-06,-6.85410797000328e-05
0.0605,-5.06836210116235e-06,-6.17777281395086e-05
0.061,-7.08705514508825e-06,-5.33927263704239e-05
0.0615,-9.26550088520392e-06,-4.33219419712612e-05
0.062,-9.40424800400185e-06,-3.21881038924675e-05
0.0625,-6.68437047845568e-06,-2.04757593324155e-05
0.063,-2.67674970392053e-06,-8.29654933293407e-06
0.0635,2.55080294581601e-07,3.95634209597709e-06
0.064,1.27723994295083e-06,1.55969773502331e-05
0.0645,1.26629362150627e-06,2.6199500557888e-05
0.065,1.07950164846085e-06,3.5556282350025e-05
0.0655,7.78121128013824e-07,4.33031517494979e-05
0.066,5.19008783623168e-07,4.87934526036612e-05
0.0665,8.7103773103721e-07,5.11011884723807e-05
0.067,1.86839269291275e-06,4.9745181010112e-05
0.0675,2.88462218135603e-06,4.63315165242371e-05
0.068,3.84352224703905e-06,4.47613850820965e-05
0.0685,5.41736793993108e-06,4.8148877669694e-05
0.069,7.57255174020479e-06,5.52288860792055e-05
0.0695,9.06899300111168e-06,6.07806489761936e-05
0.07,8.98519878005999e-06,6.01007938743638e-05
0.0705,7.8564947255199e-06,5.29604628249089e-05
0.071,6.87771909411308e-06,4.34619709028298e-05
0.0715,6.70948574073314e-06,3.64138775284506e-05
0.072,7.35425940233548e-06,3.34105855211663e-05
0.0725,8.51351265539109e-06,3.15520522415936e-05
0.073,9.65806170325958e-06,2.56542899571801e-05
0.0735,1.01614674679409e-05,1.21854322097063e-05
0.074,9.74321149883165e-06,-8.08604035700362e-06
0.0745,8.63083257082834e-06,-3.06471284618237e-05
0.075,7.17293657089164e-06,-5.04381508360897e-05
0.0755,5.5676626377052e-06,-6.50254723546545e-05
0.076,4.06991791244977e-06,-7.51515793035999e-05
0.0765,3.02008177211835e-06,-8.27187924010316e-05
0.077,2.29938229508307e-06,-8.87111689852796e-05
0.0775,1.03650881737021e-06,-9.2833769084611e-05
0.078,-1.65450222021382e-06,-9.43733052172118e-05
0.0785,-5.65676720514452e-06,-9.32590875441796e-05
0.079,-9.94280501378381e-06,-9.06943120529099e-05
0.0795,-1.36433272077261e-05,-8.83451091118031e-05
0.08,-1.65424010785405e-05,-8.61344334575493e-05
0.0805,-1.85180138807835e-05,-8.14121138804705e-05
0.081,-1.91518095741694e-05,-7.14373744365774e-05
0.0815,-1.81550093518028e-05,-5.62259195249675e-05
0.082,-1.57548494402461e-05,-3.78285700291471e-05
0.0825,-1.24275751830593e-05,-1.75067674292072e-05
0.083,-8.46059232124162e-06,4.7316853050986e-06
0.0835,-3.86982705250875e-06,2.81277718546967e-05
0.084,1.3743037604194e-06,5.06961642261574e-05
0.0845,6.98635233583981e-06,7.12399181231963e-05
0.085,1.196043180184e-05,9.00459193149328e-05
0.0855,1.4580792341343e-05,0.000106449415024031
0.086,1.3501493195269e-05,0.000117206159255528
0.0865,9.28566048340917e-06,0.000119019399953382
0.087,4.42794629798762e-06,0.000112041812018168
0.0875,1.30150053809627e-06,9.96264278074607e-05
0.088,3.14301740123483e-07,8.52311559908109e-05
0.0885,3.33564931047481e-07,7.05143828383731e-05
0.089,3.05181873873983e-07,5.56470675242255e-05
0.0895,-1.85825591718057e-07,4.02559967095405e-05
0.09,-1.48052816541833e-06,2.42214430968594e-05
0.0905,-3.93123227957643e-06,8.31478903042034e-06
0.091,-7.16614319617966e-06,-5.77618561701732e-06
0.0915,-9.9214684758219e-06,-1.62504049222699e-05
0.092,-1.11362342617307e-05,-2.22164129474673e-05
0.0925,-1.10075249451217e-05,-2.41701361433918e-05
0.093,-1.05448619605938e-05,-2.3608682562857e-05
0.0935,-1.02014394285928e-05,-2.20259186662548e-05
0.094,-9.42689182784207e-06,-1.99983673983084e-05
0.0945,-7.66503271686102e-06,-1.70651746882212e-05
0.095,-5.38126611425633e-06,-1.25395713140255e-05
0.0955,-3.75197680163243e-06,-6.59063662793363e-06
0.096,-3.41111347865229e-06,-5.14984448834213e-07
0.0965,-3.83756759834441e-06,4.13667818007478e-06
0.097,-4.11143794980859e-06,6.55346276249461e-06
0.0975,-3.98830435581225e-06,6.7167066779041e-06
0.098,-3.96129278001745e-06,4.81293334414034e-06
0.0985,-4.41225850217808e-06,9.73028008541912e-07
0.099,-4.97652934130225e-06,-4.36154568875254e-06
0.0995,-4.79118537787499e-06,-9.90600765676306e-06
0.1,-3.24542914407182e-06,-1.36261665101481e-05
0.1005,-4.17818877075491e-07,-1.40403606530154e-05
0.101,3.07974413110339e-06,-1.19113059974479e-05
0.1015,6.49741995864076e-06,-1.00869494219791e-05
0.102,9.27984236029883e-06,-1.07916250650947e-05
0.1025,1.1233928544346e-05,-1.33177378797932e-05
0.103,1.24125853162701e-05,-1.5216570651417e-05
0.1035,1.29158740079609e-05,-1.53914427588251e-05
0.104,1.3020887870961e-05,-1.48526463772414e-05
0.1045,1.33283081918743e-05,-1.47119359555273e-05
0.105,1.4340038924504e-05,-1.50055084218313e-05
0.1055,1.60689750233055e-05,-1.56274179219953e-05
0.106,1.84607414502154e-05,-1.6882456590436e-05
0.1065,2.15622790177156e-05,-1.87814575978697e-05
0.107,2.43512257679384e-05,-2.11376685978626e-05
0.1075,2.41007385167766e-05,-2.46250219329411e-05
0.108,1.85783241423796e-05,-3.04053892890904e-05
0.1085,9.02406012473688e-06,-3.82678501133575e-05
0.109,-4.60801056651594e-07,-4.60718265354346e-05
0.1095,-6.93608058414005e-06,-5.12461872438514e-05
0.11,-1.08777189936161e-05,-5.20713274581325e-05
0.1105,-1.40293943567677e-05,-4.7704058768268e-05
0.111,-1.65258934945421e-05,-3.83731967964973e-05
0.1115,-1.724371848837e-05,-2.60335767143417e-05
0.112,-1.58014048298171e-05,-1.35385444548208e-05
0.1125,-1.26878960058155e-05,-2.11080836251018e-06
0.113,-8.08780327496258e-06,9.60823801740916e-06
0.1135,-2.25020447903572e-06,2.29014006686129e-05
0.114,3.14921744480958e-06,3.59936556076916e-05
0.1145,5.75494668699567e-06,4.50873510331911e-05
0.115,5.16549193615742e-06,4.82052300021863e-05
0.1155,3.56613876369743e-06,4.68178854310984e-05
0.116,3.08586532498491e-06,4.37425023303846e-05
0.1165,3.49132653604516e-06,4.06970151633305e-05
0.117,3.11153311801042e-06,3.8094292078976e-05
0.1175,1.17004994260003e-06,3.57951441725749e-05
0.118,-1.516625077407e-06,3.31020731347178e-05
0.1185,-3.54491985884293e-06,2.88628120163284e-05
0.119,-3.91513784212879e-06,2.27738136567528e-05
0.1195,-2.41199784524418e-06,1.62908440033403e-05
0.12,1.7593340543257e-07,1.13005032038472e-05
0.1205,2.19556369650499e-06,8.24581798027544e-06
0.121,2.27101281957524e-06,6.50777041147293e-06
0.1215,6.92709391214326e-07,5.94002695417375e-06
0.122,-8.66992989314707e-07,6.520490161204e-06
0.1225,-1.35793135228287e-06,6.85541621023138e-06
0.123,-1.47794739698755e-06,4.77759298968408e-06
0.1235,-2.4603472393119e-06,-1.19980510220736e-07
0.124,-4.41352867762536e-06,-5.55056277711557e-06
0.1245,-6.26930897726256e-06,-8.67684840550465e-06
0.125,-6.81324507116548e-06,-8.92188672446482e-06
0.1255,-5.51600103466632e-06,-8.57497461478253e-06
0.126,-2.94921461742077e-06,-1.06308064480886e-05
0.1265,-6.13971082669394e-07,-1.55767531108604e-05
0.127,1.97172525603319e-07,-2.01716802298185e-05
0.1275,-3.55691609153587e-07,-2.01469642839999e-05
0.128,-9.57965970497439e-07,-1.45151459264969e-05
0.1285,-9.23436407390386e-07,-6.51365343506905e-06
0.129,-1.19013368684312e-06,2.22002521400767e-07
0.1295,-2.92530884073407e-06,5.77087137494842e-06
0.13,-5.40866377072889e-06,1.33871903884917e-05
0.1305,-6.32320944381239e-06,2.520643061048e-05
0.131,-4.50707565991464e-06,3.97363293018908e-05
0.1315,-1.5421310768372e-06,5.3827452389919e-05
0.132,1.47574024169663e-07,6.56667738882234e-05
0.1325,2.96204000575291e-07,7.4899755867479e-05
0.133,1.00450752454764e-06,8.07834978111592e-05
0.1335,3.93826104342557e-06,8.12410025905568e-05
0.134,8.12054638953399e-06,7.35713225037932e-05
0.1345,1.10055433697895e-05,5.62770596396832e-05
0.135,1.12461105001065e-05,3.12074011711659e-05
0.1355,9.67417428656894e-06,3.90997062108473e-06
0.136,7.82276249492594e-06,-1.94584447187426e-05
0.1365,6.39081222763161e-06,-3.63545440319502e-05
0.137,5.18084668772621e-06,-4.88557855961913e-05
0.1375,3.62115423021631e-06,-6.07829585008592e-05
0.138,1.02821119727407e-06,-7.43546446527428e-05
0.1385,-2.91111285087629e-06,-8.89662395167041e-05
0.139,-7.44722266712132e-06,-0.000102094459504128
0.1395,-1.10590997955187e-05,-0.000111642856604813
0.14,-1.29045500320206e-05,-0.000118037707797457
0.1405,-1.36444225977154e-05,-0.000123220668473116
0.141,-1.44913380610718e-05,-0.000126985956150274
0.1415,-1.58162066538833e-05,-0.000125853085447653
0.142,-1.69840279652311e-05,-0.000116829811813927
0.1425,-1.71232729224771e-05,-0.000100936427699961
0.143,-1.5752478001431e-05,-8.17644983497405e-05
0.1435,-1.31170937641482e-05,-6.20892321960794e-05
0.144,-1.02837756494672e-05,-4.32623545345361e-05
0.1445,-8.51597026897443e-06,-2.60097010694569e-05
0.145,-8.10610442942648e-06,-9.68016611163489e-06
0.1455,-7.95519786687907e-06,7.89793717007973e-06
0.146,-6.56634899718309e-06,2.76702724548522e-05
0.1465,-3.34403434445457e-06,4.74620161627137e-05
0.147,1.15770533279992e-06,6.44436480530287e-05
0.1475,5.82092907759522e-06,7.81678762797534e-05
0.148,9.38692068775956e-06,8.93721646931897e-05
0.1485,1.07836564478767e-05,9.71104415248872e-05
0.149,9.94070968333677e-06,9.95070938721044e-05
0.1495,8.29594560611569e-06,9.69597185004314e-05
0.15,7.63422163069685e-06,9.22927651430189e-05
0.1505,8.16636851188085e-06,8.7366829200669e-05
0.151,8.54100561526958e-06,8.12887477436063e-05
0.1515,8.05291853940098e-06,7.25780995478955e-05
0.152,7.83396117489067e-06,6.17034560266357e-05
0.1525,9.18012885415982e-06,5.0671778760668e-05
0.153,1.16055386664981e-05,4.11104967686035e-05
0.1535,1.349414487099e-05,3.36132166917137e-05
0.154,1.4072395817957e-05,2.82314894389934e-05
0.1545,1.3817697313708e-05,2.44928741743532e-05
0.155,1.33325053943221e-05,2.09417337566387e-05
0.1555,1.27269361661968e-05,1.54056511061884e-05
0.156,1.19622338742782e-05,6.29921230168154e-06
0.1565,1.10501771535961e-05,-5.97992601393417e-06
0.157,9.90165107663977e-06,-1.88604933813809e-05
0.1575,8.42322997171089e-06,-2.91090911174421e-05
0.158,6.57779681306311e-06,-3.48385632577202e-05
0.1585,4.02890733632592e-06,-3.61107041428447e-05
0.159,3.1602154935522e-07,-3.38774356781063e-05
0.1595,-4.03246830941298e-06,-2.88589666321698e-05
0.16,-7.30745963825611e-06,-2.15397533817784e-05
0.1605,-8.46565764785537e-06,-1.27783310226735e-05
0.161,-8.59136247402695e-06,-3.90845049351504e-06
0.1615,-9.456937257937e-06,3.93394092887169e-06
0.162,-1.09812591055521e-05,1.04255119822868e-05
0.1625,-1.12349306887193e-05,1.58684109252462e-05
0.163,-8.94265130739441e-06,2.05951356509928e-05
0.1635,-5.04742209682135e-06,2.45678717375554e-05
0.164,-1.6379235761692e-06,2.70014904627349e-05
0.1645,2.03989160103719e-08,2.63657367780446e-05
0.165,2.57507538380283e-07,2.18707105377756e-05
0.1655,3.20206165890403e-07,1.54430166920393e-05
0.166,1.07472407172476e-06,1.10367975957549e-05
0.1665,2.07506537702805e-06,1.09943767408281e-05
0.167,1.88397260723957e-06,1.3757128115086e-05
0.1675,-4.21173076337168e-07,1.57859058024021e-05
0.168,-4.0957114846112e-06,1.47880668394289e-05
0.1685,-7.28552782811481e-06,1.0275399682966e-05
0.169,-8.5300533090785e-06,2.11205146041607e-06
0.1695,-7.37322921747119e-06,-9.7692261731872e-06
0.17,-3.8042264426996e-06,-2.40709880161158e-05
0.1705,2.10229443722516e-06,-3.78561328344563e-05
0.171,9.67311667431267e-06,-4.86985480690299e-05
0.1715,1.72756769416243e-05,-5.69692585631071e-05
0.172,2.31719750652421e-05,-6.49959463052042e-05
0.1725,2.6840545557919e-05,-7.35827305261989e-05
0.173,2.88073789934431e-05,-8.01743384303097e-05
0.1735,2.86700352069104e-05,-8.13259220586446e-05
0.174,2.40479708392963e-05,-7.68133259659649e-05
0.1745,1.28364271038038e-05,-7.05331470141131e-05
0.175,-3.4447553412915e-06,-6.697507259155e-05
0.1755,-1.96298532797195e-05,-6.68851207880093e-05
0.176,-3.04891205135636e-05,-6.65033027218957e-05
0.1765,-3.3789059276896e-05,-6.12537306322513e-05
0.177,-3.0376043399865e-05,-5.0400499457251e-05
0.1775,-2.29173524688549e-05,-3.78229343852026e-05
0.178,-1.49571640158202e-05,-2.75624432945203e-05
0.1785,-9.48760551694406e-06,-1.84600853968095e-05
0.179,-6.95497046328472e-06,-4.24991802154394e-06
0.1795,-5.33141522911411e-06,1.94837237130709e-05
0.18,-3.30893599180709e-06,4.84265386479663e-05
0.1805,-2.65419325310901e-06,7.16008129448896e-05
0.181,-5.83618862866918e-06,8.14847491161565e-05
0.1815,-1.17605035351835e-05,8.05567168677822e-05
0.182,-1.57836962440203e-05,7.67310587163047e-05
0.1825,-1.43902496117063e-05,7.4667369085609e-05
0.183,-8.52793516476992e-06,7.37504046793044e-05
0.1835,-1.88582812398059e-06,7.22607131719857e-05
0.184,2.9185974399304e-06,6.98459121117137e-05
0.1845,5.84702909327558e-06,6.63410824622143e-05
0.185,8.20757686683221e-06,6.11504805121809e-05
0.1855,1.08402798693428e-05,5.44077441195754e-05
0.186,1.31421285913907e-05,4.72133096962626e-05
0.1865,1.34241594681263e-05,4.0377348164842e-05
0.187,1.06885917394416e-05,3.37885491399681e-05
0.1875,6.38190131870174e-06,2.69453043110968e-05
0.188,3.59143876687348e-06,1.92387761936906e-05
0.1885,3.7017499608538e-06,9.76643296228403e-06
0.189,4.50843030525887e-06,-2.17302922461998e-06
0.1895,2.84290593963814e-06,-1.60439809982501e-05
0.19,-1.30538455809756e-06,-3.00834896924896e-05
0.1905,-4.79260502126644e-06,-4.25921271730703e-05
0.191,-5.4986584150473e-06,-5.27890881184172e-05
0.1915,-4.84557968961797e-06,-6.04140869257738e-05
0.192,-5.44362247871708e-06,-6.52634443793516e-05
0.1925,-7.53383874099322e-06,-6.73088235642074e-05
0.193,-8.90305868847365e-06,-6.6472411188582e-05
0.1935,-7.69104143258873e-06,-6.19587304777071e-05
0.194,-4.24995154394673e-06,-5.26198459516629e-05
0.1945,-4.81051573323356e-07,-3.87129131619098e-05
0.195,1.85721945795299e-06,-2.29813237994979e-05
0.1955,2.26075003565123e-06,-9.10200550928448e-06
0.196,1.51508507422142e-06,1.37778120419495e-06
0.1965,7.86724397219216e-07,1.0056943507704e-05
0.197,6.10596895810933e-07,1.90699503153554e-05
0.1975,7.93536975213788e-07,2.80738289039205e-05
0.198,1.03729643853162e-06,3.48366129449356e-05
0.1985,1.21421121144815e-06,3.83281703424659e-05
0.199,1.14993351580535e-06,3.98747826997178e-05
0.1995,6.88644531328813e-07,4.12501086884546e-05
0.2,5.19234024289858e-08,4.28183291008621e-05
0.2005,-3.35401694616044e-07,4.39318973032367e-05
0.201,-4.51670088311155e-07,4.42410364045614e-05
0.2015,-5.6811055721223e-07,4.38744525545888e-05
0.202,-4.5634660986439e-07,4.26908446141296e-05
0.2025,4.6455720801051e-07,3.99878230141423e-05
0.203,1.83526745480743e-06,3.49062159964235e-05
0.2035,2.18367208220581e-06,2.6817617175736e-05
0.204,8.11071510890948e-07,1.55957217556576e-05
0.2045,-8.45336213891367e-07,2.13954395365832e-06
0.205,-5.95305810947082e-07,-1.13959916276296e-05
0.2055,2.01715929338801e-06,-2.27729087040169e-05
0.206,5.11850669368102e-06,-3.17126031824374e-05
0.2065,6.2567908952183e-06,-4.03542149109418e-05
0.207,4.60511231580489e-06,-5.09127202096407e-05
0.2075,1.77927435260577e-06,-6.27678971895107e-05
0.208,5.70564242434894e-07,-7.23509893727555e-05
0.2085,2.36759156643345e-06,-7.62929213186846e-05
0.209,5.69536889254264e-06,-7.45236445485312e-05
0.2095,7.76177371867495e-06,-6.98221967579472e-05
0.21,7.31793584812042e-06,-6.44337592833327e-05
0.2105,5.352065872122e-06,-5.79263256774311e-05
0.211,3.34451728796974e-06,-4.86863043189221e-05
0.2115,1.9402325059938e-06,-3.67110430528913e-05
0.212,1.24564235649374e-06,-2.40486808543277e-05
0.2125,1.26015396218911e-06,-1.27398438568422e-05
0.213,1.65948892369172e-06,-3.28542986387843e-06
0.2135,1.84709578815202e-06,4.69722730564564e-06
0.214,1.56511030552999e-06,1.13454035737318e-05
0.2145,1.10547653948877e-06,1.68062289323281e-05
0.215,6.8715810550971e-07,2.18642294318598e-05
0.2155,-1.60854094251714e-07,2.7160644064446e-05
0.216,-2.2380808165754e-06,3.18776776476115e-05
0.2165,-5.49823709373402e-06,3.43420566431375e-05
0.217,-8.48612049128749e-06,3.45433888659909e-05
0.2175,-9.53484213812729e-06,3.52241077468822e-05
0.218,-8.60898328829867e-06,3.91649188110714e-05
0.2185,-7.30257006255128e-06,4.53386268800229e-05
0.219,-6.83010248265864e-06,4.90070399196371e-05
0.2195,-6.79431421060643e-06,4.64402073996912e-05
0.22,-6.16777656606812e-06,3.9192907177683e-05
0.2205,-4.53897433792885e-06,3.32761434318188e-05
0.221,-1.94794379269033e-06,3.40194965068671e-05
0.2215,1.53337452925927e-06,4.13606702387556e-05
0.222,5.28650975375155e-06,4.96528413495397e-05
0.2225,7.94008314956185e-06,5.2153352678939e-05
0.223,8.66410583695224e-06,4.62029471884822e-05
0.2235,8.39879783146892e-06,3.45965641642259e-05
0.224,9.0228695622171e-06,2.26490486666282e-05
0.2245,1.14698613728639e-05,1.43338829270394e-05
0.225,1.52474067205719e-05,1.0556133088943e-05
0.2255,1.94390105660063e-05,9.94151274874587e-06
0.226,2.32367579102914e-05,1.07673419516638e-05
0.2265,2.55267671749877e-05,1.21532469330027e-05
0.227,2.50352010430582e-05,1.33643731470267e-05
0.2275,2.14051843078179e-05,1.24379225593513e-05
0.228,1.55500338219465e-05,6.77505997917606e-06
0.2285,8.68611034846592e-06,-4.12280829314807e-06
0.229,1.62637031510707e-06,-1.71991108031662e-05
0.2295,-4.92865944234439e-06,-2.81798266368693e-05
0.23,-1.03283316234354e-05,-3.52900977148387e-05
0.2305,-1.45114753686814e-05,-3.99515981242698e-05
0.231,-1.78846587874654e-05,-4.41299793847902e-05
0.2315,-2.0406508537416e-05,-4.81975894415158e-05
0.232,-2.14384012901968e-05,-5.16117354706592e-05
0.2325,-2.07490957537877e-05,-5.45236773105972e-05
0.233,-1.90382287394982e-05,-5.77375718742404e-05
0.2335,-1.71019447505508e-05,-6.1123859544021e-05
0.234,-1.50928207672702e-05,-6.27529773498654e-05
0.2345,-1.32333112594362e-05,-6.04079701876224e-05
0.235,-1.26463129841545e-05,-5.40744059407224e-05
0.2355,-1.4151014747708e-05,-4.60382999591328e-05
0.236,-1.6197489375565e-05,-3.80812488039457e-05
0.2365,-1.55838571564593e-05,-2.95968510005872e-05
0.237,-1.10154293835665e-05,-1.9104425086097e-05
0.2375,-4.74526571628064e-06,-6.40138545862475e-06
0.238,1.37407421186908e-07,7.63015027182079e-06
0.2385,2.85708999416477e-06,2.18985786198089e-05
0.239,4.47191510857303e-06,3.44749434996587e-05
0.2395,5.4869152214576e-06,4.24096956594291e-05
0.24,5.43408792738304e-06,4.39476128839185e-05
0.2405,4.36287653430696e-06,4.0330584015761e-05
0.241,3.27834233055638e-06,3.40621076853192e-05
0.2415,2.74542158070035e-06,2.61369492917881e-05
0.242,1.98732352672478e-06,1.64322294022761e-05
0.2425,1.2398064188217e-08,5.91509737943182e-06
0.243,-2.87619502275379e-06,-3.5817583932304e-06
0.2435,-5.3627779648792e-06,-1.1493756155211e-05
0.244,-6.5961017538399e-06,-1.86128846972505e-05
0.2445,-6.73555056456692e-06,-2.5062621462648e-05
0.245,-6.20678489514736e-06,-2.96798957313652e-05
0.2455,-5.06361210522379e-06,-3.15103677057244e-05
0.246,-3.24691085127386e-06,-3.08140606410987e-05
0.2465,-1.19706450827996e-06,-2.85915578782869e-05
0.247,1.05058154883283e-07,-2.58105022340676e-05
0.2475,-2.86867377589598e-08,-2.25680601599741e-05
0.248,-1.12008605146186e-06,-1.72429382275612e-05
0.2485,-1.75914081553522e-06,-7.38613040106144e-06
0.249,-8.32110807630541e-07,7.39985448874513e-06
0.2495,1.52688046696066e-06,2.40460550296837e-05
0.25,4.10606516713836e-06,3.82030081485786e-05
0.2505,5.67561717811338e-06,4.72407574296888e-05
0.251,6.0222907763475e-06,5.09992157627908e-05
0.2515,5.95315944931272e-06,5.09144150018071e-05
0.252,6.17938915393811e-06,4.89102167175894e-05
0.2525,6.35873763483999e-06,4.60960026181468e-05
0.253,5.5130042475506e-06,4.22594134389474e-05
0.2535,3.39829676699343e-06,3.76039510812193e-05
0.254,1.30689630447833e-06,3.48572921638334e-05
0.2545,1.3144251229725e-06,3.80083337556993e-05
0.255,4.43651500214632e-06,4.80509042061576e-05
0.2555,9.44808069526515e-06,6.05685139818722e-05
0.256,1.38000903498677e-05,6.82946343295979e-05
0.2565,1.5736020866838e-05,6.65061463949808e-05
0.257,1.51801140101203e-05,5.63533337623937e-05
0.2575,1.27805955944659e-05,4.32280479654168e-05
0.258,9.01787547023662e-06,3.20075958476053e-05
0.2585,4.58221752402269e-06,2.37879504479493e-05
0.259,8.44412066371767e-07,1.65459693533422e-05
0.2595,-7.28272807564293e-07,8.00415216513965e-06
0.26,4.49141908150749e-07,-2.38879857330491e-06
0.2605,3.71077262393483e-06,-1.36007767147636e-05
0.261,7.52320043589141e-06,-2.43096562474165e-05
0.2615,1.04718023623704e-05,-3.37731248470233e-05
0.262,1.23595536160249e-05,-4.16668868824686e-05
0.2625,1.42157370877201e-05,-4.76103189187832e-05
0.263,1.6730559866333e-05,-5.1520364783077e-05
0.2635,1.87534186940116e-05,-5.47514265539282e-05
0.264,1.79138091458305e-05,-6.00896764859606e-05
0.2645,1.28544771890038e-05,-6.91519666367906e-05
0.265,4.40140477179317e-06,-7.95668634548671e-05
0.2655,-5.47752101311561e-06,-8.6236685398008e-05
0.266,-1.51665628164544e-05,-8.64184335573607e-05
0.2665,-2.36106699274634e-05,-8.26201674728571e-05
0.267,-2.97461692722045e-05,-7.92956859063811e-05
0.2675,-3.24262546868446e-05,-7.73491844221169e-05
0.268,-3.10018192645685e-05,-7.3310676943082e-05
0.2685,-2.58799965664417e-05,-6.36201971240989e-05
0.269,-1.85283386744598e-05,-4.83425599030731e-05
0.2695,-1.09359966526971e-05,-3.0885751141207e-05
0.27,-4.89679360029685e-06,-1.54680761416102e-05
0.2705,-1.32027986131227e-06,-4.61811418720513e-06
0.271,2.43616975719681e-07,2.36396735816037e-06
0.2715,1.16801790953538e-06,8.47282184978358e-06
0.272,2.20304547877615e-06,1.55133990873953e-05
0.2725,2.45091369657594e-06,2.20157241398895e-05
0.273,4.9842799631356e-07,2.5405880735533e-05
0.2735,-3.52714185207278e-06,2.50857487159621e-05
0.274,-7.69492221316814e-06,2.24248889987309e-05
0.2745,-1.00195275475396e-05,1.94852510130415e-05
0.275,-9.82707495938992e-06,1.92574351083119e-05
0.2755,-7.44976221828313e-06,2.51684300592193e-05
0.276,-3.45532502492125e-06,3.78319233186053e-05
0.2765,1.48768977921735e-06,5.30087118740129e-05
0.277,6.65378494904721e-06,6.47205184595848e-05
0.2775,1.15541066019428e-05,7.01869623663774e-05
0.278,1.56746832983394e-05,7.06822197357364e-05
0.2785,1.78093554274394e-05,6.83569980907542e-05
0.279,1.66131451015915e-05,6.39103345609657e-05
0.2795,1.23989171876936e-05,5.73999538312992e-05
0.28,7.567026895985e-06,4.97763721740768e-05
0.2805,4.36848056733505e-06,4.2642591130141e-05
0.281,2.66202258303765e-06,3.69028893724198e-05
0.2815,6.45350358609986e-07,3.22725992018261e-05
0.282,-2.60702330298654e-06,2.81516893872776e-05
0.2825,-6.21557977854821e-06,2.46052084231858e-05
0.283,-8.80814867515217e-06,2.20745171821056e-05
0.2835,-9.78993155311086e-06,2.02694045902503e-05
0.284,-9.35418483417506e-06,1.81256243354297e-05
0.2845,-8.12485771928549e-06,1.5115193422433e-05
0.285,-7.03738122835458e-06,1.19159716899445e-05
0.2855,-7.01229433021759e-06,9.44674998600565e-06
0.286,-8.29480797860079e-06,7.73864495228727e-06
0.2865,-1.0054786818928e-05,6.02653281670269e-06
0.287,-1.07764741966576e-05,3.59561911607184e-06
0.2875,-9.29956625280588e-06,2.51838385585292e-07
0.288,-5.69864393795058e-06,-4.02216041154558e-06
0.2885,-1.2823919385773e-06,-9.83065683967889e-06
0.289,2.18744934299224e-06,-1.85167119241818e-05
0.2895,3.52171453622205e-06,-3.08423611405717e-05
0.29,2.88009041453817e-06,-4.51520934796326e-05
0.2905,1.67782478204074e-06,-5.75364008552555e-05
0.291,1.3858835960881e-06,-6.46773555473605e-05
0.2915,2.25475747995778e-06,-6.65713246839733e-05
0.292,3.33582878804755e-06,-6.62537377037736e-05
0.2925,3.65259194584334e-06,-6.70114959994315e-05
0.293,3.10185620575505e-06,-6.97897084399294e-05
0.2935,2.37368886343844e-06,-7.27854023843815e-05
0.294,2.46155450262225e-06,-7.32361866890225e-05
0.2945,4.18470513882565e-06,-6.98731268967373e-05
0.295,7.36649356394292e-06,-6.41928914619862e-05
0.2955,1.01324034080605e-05,-5.93074913170985e-05
0.296,1.00425392627357e-05,-5.65795692601061e-05
0.2965,6.89938781624063e-06,-5.29692983239199e-05
0.297,3.75590027457912e-06,-4.30053500482347e-05
0.2975,4.02520286884646e-06,-2.45213619934294e-05
0.298,8.07164989386301e-06,-1.4746212973923e-06
0.2985,1.38396196871158e-05,2.01160884899128e-05
0.299,2.02639996828509e-05,3.79688889648449e-05
0.2995,2.79626645006234e-05,5.36287394291876e-05
0.3,3.59717348447123e-05,6.76262370406444e-05
0.3005,3.99219782625905e-05,7.70687204103114e-05
0.301,3.55343701288911e-05,7.87348062454099e-05
0.3015,2.33062808087949e-05,7.28890393332759e-05
0.302,8.02492831673065e-06,6.30091481711106e-05
0.3025,-5.96101906304823e-06,5.26913844930141e-05
0.303,-1.72735261227854e-05,4.35109087157888e-05
0.3035,-2.58593095220451e-05,3.49676096276578e-05
0.304,-3.1291017828342e-05,2.57146039170294e-05
0.3045,-3.33011506045712e-05,1.53864976794677e-05
0.305,-3.2361113128948e-05,5.62704707597517e-06
0.3055,-2.91011880036561e-05,-1.25758342259814e-06
0.306,-2.4086002103845e-05,-4.74104135284617e-06
0.3065,-1.83494403978433e-05,-6.40186042003863e-06
0.307,-1.32962429479016e-05,-7.8845489191352e-06
0.3075,-9.72224732610592e-06,-9.47072810343746e-06
0.308,-7.25974466681446e-06,-1.04229441247835e-05
0.3085,-4.94173833769332e-06,-9.41994750876083e-06
0.309,-2.19477593853354e-06,-4.70259921146622e-06
0.3095,7.39566410516874e-07,4.61298414324867e-06
0.31,3.2160533328322e-06,1.67098867863267e-05
0.3105,4.81814311873248e-06,2.75666102494949e-05
0.311,5.52057003009233e-06,3.40882626618288e-05
0.3115,5.48721304738888e-06,3.63948900043272e-05
0.312,5.02366012612106e-06,3.66492355254327e-05
0.3125,4.55143333369269e-06,3.61957073658798e-05
0.313,4.16699418761498e-06,3.4521088801225e-05
0.3135,3.32790664416033e-06,3.06920371912958e-05
0.314,1.57832753640792e-06,2.50028927100888e-05
0.3145,-3.94982685626434e-07,1.90423964337461e-05
0.315,-1.14572250449286e-06,1.432960424028e-05
0.3155,-1.56449687295518e-07,1.07493535620776e-05
0.316,1.43986994853036e-06,6.40371413934748e-06
0.3165,2.08995596034868e-06,-4.43726260668578e-07
0.317,1.2468534887776e-06,-9.27990611849514e-06
0.3175,-6.30033017967766e-07,-1.78395795375105e-05
0.318,-2.81640574418654e-06,-2.45353996542292e-05
0.3185,-4.59801025868553e-06,-2.94057697429872e-05
0.319,-5.31779232890312e-06,-3.27672286118682e-05
0.3195,-4.80141499663888e-06,-3.44683998349502e-05
0.32,-3.69780239610166e-06,-3.49925559521737e-05
0.3205,-3.06565205084068e-06,-3.58193227775857e-05
0.321,-3.539281082068e-06,-3.78110989692283e-05
0.3215,-4.86041235276313e-06,-4.03925835737446e-05
0.322,-6.04006372153497e-06,-4.29592484772387e-05
0.3225,-6.01271102443873e-06,-4.56102076572285e-05
0.323,-4.50022779122717e-06,-4.75475884154574e-05
0.3235,-2.36151364949084e-06,-4.63738329467336e-05
0.324,-7.84592799716045e-07,-4.07378514127162e-05
0.3245,-6.03414125240338e-08,-3.29666479307414e-05
0.325,4.78234834370936e-07,-2.72816474548611e-05
0.3255,1.28821422434213e-06,-2.51955036910059e-05
0.326,1.95434131608103e-06,-2.39076841092124e-05
0.3265,1.87646018795691e-06,-1.98435759355571e-05
0.327,1.06013674488626e-06,-1.29375749153611e-05
0.3275,-4.96740045465081e-08,-6.43081943363891e-06
0.328,-9.52269302315277e-07,-2.69901038720383e-06
0.3285,-9.61956612753925e-07,-5.3399938627146e-07
0.329,5.99743560972054e-07,2.82784038673484e-06
0.3295,3.41966683510476e-06,7.99028857929829e-06
0.33,5.99257671168425e-06,1.30035301128497e-05
0.3305,7.24974944738169e-06,1.61770632036821e-05
0.331,7.93435472398287e-06,1.75907873893882e-05
0.3315,9.41082602519399e-06,1.76370544705905e-05
0.332,1.14428223622956e-05,1.58488993306959e-05
0.3325,1.22916517878051e-05,1.22224458481226e-05
0.333,1.11021800060215e-05,8.52352425097082e-06
0.3335,9.11823611938607e-06,6.95140578147397e-06
0.334,7.93927364462628e-06,8.0449623805841e-06
0.3345,7.24480211851833e-06,1.0807439755754e-05
0.335,5.19105701320564e-06,1.4096166761142e-05
0.3355,1.04002550979112e-06,1.68979435306231e-05
0.336,-3.4694651841814e-06,1.8245740559726e-05
0.3365,-5.83812396977398e-06,1.8271677836543e-05
0.337,-5.43915918567543e-06,1.87027608043708e-05
0.3375,-3.93751680497304e-06,2.09572708008876e-05
0.338,-3.28875101427587e-06,2.40908120914781e-05
0.3385,-3.82066324496225e-06,2.57657673019476e-05
0.339,-4.39733935142664e-06,2.51004808195722e-05
0.3395,-4.09202581350266e-06,2.36587078103358e-05
0.34,-3.24642234460448e-06,2.35936182117571e-05
0.3405,-2.87806620241989e-06,2.54221305406465e-05
0.341,-3.52119336870628e-06,2.77951155433668e-05
0.3415,-4.89501256218943e-06,2.91402381871959e-05
0.342,-6.27250613259916e-06,2.92621869289701e-05
0.3425,-6.80061701456427e-06,2.92772273126677e-05
0.343,-5.8753640884212e-06,3.00703448053004e-05
0.3435,-3.74360319821195e-06,3.1045082511971e-05
0.344,-1.5682281325314e-06,3.05791358426622e-05
0.3445,-4.40515946476385e-07,2.76208671175885e-05
0.345,-2.46121921496538e-07,2.26914458871812e-05
0.3455,3.23086913291476e-07,1.74342647189702e-05
0.346,2.51046344120453e-06,1.32744643688233e-05
0.3465,6.18421386483508e-06,1.02665076927515e-05
0.347,9.8453872013696e-06,7.0348726928794e-06
0.3475,1.20933517361806e-05,2.08147896522546e-06
0.348,1.29518615702277e-05,-4.49998824071275e-06
0.3485,1.34130099556121e-05,-1.06776641796904e-05
0.349,1.38655204880303e-05,-1.41793607859084e-05
0.3495,1.35845745276119e-05,-1.46863816065666e-05
0.35,1.17040936480214e-05,-1.43380999549573e-05
0.3505,8.00038585042339e-06,-1.61058697566202e-05
0.351,2.7371075005362e-06,-2.1589433345703e-05
0.3515,-3.45994364880241e-06,-3.01137227917058e-05
0.352,-9.34803070367612e-06,-3.9629262202122e-05
0.3525,-1.33462571081471e-05,-4.82175576109785e-05
0.353,-1.45784637914649e-05,-5.49233564351423e-05
0.3535,-1.35902096884586e-05,-5.9937919288583e-05
0.354,-1.19382251995677e-05,-6.41620404648498e-05
0.3545,-1.10615011301302e-05,-6.75128342541167e-05
0.355,-1.13263047325287e-05,-6.74751307868225e-05
0.3555,-1.19729883444052e-05,-6.12515312763603e-05
0.356,-1.21149689230547e-05,-5.00765405050977e-05
0.3565,-1.17045549653623e-05,-3.88661066561681e-05
0.357,-1.11232208771454e-05,-3.0278032898825e-05
0.3575,-1.01078855678716e-05,-2.22399054645827e-05
0.358,-8.00528952392775e-06,-1.35644767035912e-05
0.3585,-5.1014152673383e-06,-8.54727725197901e-06
0.359,-2.63304698187993e-06,-1.19493476554017e-05
0.3595,-1.09557852812172e-06,-2.10522063961393e-05
0.36,5.95205721900749e-07,-2.6796187853931e-05
0.3605,3.70368819974954e-06,-2.27587475422408e-05
0.361,8.0316187849577e-06,-9.84837171471749e-06
0.3615,1.21413740571382e-05,7.85366063586692e-06
0.362,1.46966880361355e-05,2.78782921494915e-05
0.3625,1.52612566046324e-05,4.81956770090312e-05
0.363,1.44920978329831e-05,6.46631599902546e-05
0.3635,1.39566152746664e-05,7.32320338354221e-05
0.364,1.49008515448701e-05,7.39265401848163e-05
0.3645,1.65611940965381e-05,7.03627893177814e-05
0.365,1.64083934031827e-05,6.58702100663049e-05
0.3655,1.27191127572518e-05,6.17718689556024e-05
0.366,6.38721493337066e-06,5.84962923583469e-05
0.3665,-2.38326717068019e-07,5.58631951164255e-05
0.367,-5.61856305177848e-06,5.21459161852909e-05
0.3675,-9.49423146239554e-06,4.50756737233322e-05
0.368,-1.1721778745595e-05,3.48193774547333e-05
0.3685,-1.17926632682809e-05,2.47487988217454e-05
0.369,-9.75195396258916e-06,1.81664924352876e-05
0.3695,-6.7884255103673e-06,1.47089498755793e-05
0.37,-4.26981154654856e-06,1.0800886611672e-05
0.3705,-2.49812369738274e-06,3.7319333330681e-06
0.371,-9.23686700394034e-07,-5.3469096475529e-06
0.3715,6.82699513243559e-07,-1.32331326339579e-05
0.372,1.84664493829406e-06,-1.91747461352979e-05
0.3725,2.04416765655001e-06,-2.59368350483691e-05
0.373,1.24667759527217e-06,-3.57709131106121e-05
0.3735,-1.19521836739764e-07,-4.71451625712383e-05
0.374,-1.43159183401779e-06,-5.67894042493315e-05
0.3745,-2.21520367683998e-06,-6.34848840614612e-05
0.375,-2.50029746518539e-06,-6.83206306621731e-05
0.3755,-2.74690987576389e-06,-7.22902467367854e-05
0.376,-3.24724474339992e-06,-7.50956744243344e-05
0.3765,-3.70069483694194e-06,-7.56973957829411e-05
0.377,-3.57277170067534e-06,-7.2946712715053e-05
0.3775,-2.78698433013145e-06,-6.62068215280444e-05
0.378,-1.7737006462925e-06,-5.6176363163327e-05
0.3785,-8.61865934954691e-07,-4.44207712364517e-05
0.379,6.7381390905009e-08,-3.14341924796583e-05
0.3795,1.32268182550412e-06,-1.63712149452021e-05
0.38,2.9555960346184e-06,1.71671443757978e-07
0.3805,4.38789153531074e-06,1.46585965091949e-05
0.381,4.460691473929e-06,2.43827318647935e-05
0.3815,2.39738792881339e-06,3.22450877007254e-05
0.382,-1.0043074757781e-06,4.45308698058432e-05
0.3825,-3.61148314581775e-06,6.26868696675537e-05
0.383,-3.79532114616774e-06,8.00066830347203e-05
0.3835,-1.87604150450252e-06,8.85390894247767e-05
0.384,3.88439202869162e-07,8.73057234191978e-05
0.3845,1.44127010453567e-06,8.16186977476637e-05
0.385,9.02566642726424e-07,7.62228800407215e-05
0.3855,-5.65204902129816e-07,7.18602378931009e-05
0.386,-1.812678893256e-06,6.74956876146268e-05
0.3865,-1.94435109007214e-06,6.26857125322541e-05
0.387,-1.22386569638566e-06,5.70409737121434e-05
0.3875,-1.12638334812523e-06,4.9490024261576e-05
0.388,-2.75238884437913e-06,3.9496843584051e-05
0.3885,-5.2443362273556e-06,2.8195148057487e-05
0.389,-6.56370635137685e-06,1.72993334838682e-05
0.3895,-5.82254024540404e-06,7.21510685639974e-06
0.39,-4.04667161282574e-06,-3.03268806666134e-06
0.3905,-2.64788950230847e-06,-1.40384688917454e-05
0.391,-2.02679296902432e-06,-2.47947429916407e-05
0.3915,-1.86597288846296e-06,-3.35095453066909e-05
0.392,-1.97099121242016e-06,-3.92680180840993e-05
0.3925,-2.30670745697458e-06,-4.2543269899653e-05
0.393,-2.64362599084438e-06,-4.4470595006547e-05
0.3935,-2.70152375235201e-06,-4.61898378140297e-05
0.394,-2.46363777526562e-06,-4.85226564602675e-05
0.3945,-1.86025672286196e-06,-5.12989612171036e-05
0.395,-2.10435285659036e-07,-5.28045393732654e-05
0.3955,3.3324984060653e-06,-5.07408165979753e-05
0.396,8.34175985410511e-06,-4.44810159315982e-05
0.3965,1.26065482488738e-05,-3.63250070906558e-05
0.397,1.38866198274546e-05,-2.99636240746905e-05
0.3975,1.2224208462699e-05,-2.72294290280742e-05
0.398,9.8876823646384e-06,-2.64525384315983e-05
0.3985,8.93977119196956e-06,-2.45095816281307e-05
0.399,9.43295070209017e-06,-2.04743031103374e-05
0.3995,9.96735890210365e-06,-1.64801851849712e-05
0.4,9.21589655275306e-06,-1.46686215341241e-05
0.4005,6.72306346800913e-06,-1.4179801908104e-05
0.401,2.98122718294571e-06,-1.19923117934128e-05
0.4015,-8.75828370755618e-07,-6.23144837077202e-06
0.402,-3.84863032337493e-06,2.16565818775202e-06
0.4025,-5.77038517713489e-06,1.06265464959074e-05
0.403,-7.08371033452995e-06,1.68293720687672e-05
0.4035,-8.07063762393859e-06,1.9725414124231e-05
0.404,-8.60121299854741e-06,1.99568076094959e-05
0.4045,-8.44031850210428e-06,1.96301359571868e-05
0.405,-7.42598413706468e-06,2.07772949400284e-05
0.4055,-5.53238099106962e-06,2.34512393537593e-05
0.406,-3.21204741146264e-06,2.57026618420703e-05
0.4065,-1.5344828126983e-06,2.55516970365164e-05
0.407,-1.32779981940184e-06,2.25714874705651e-05
0.4075,-2.0065848017322e-06,1.7780268319718e-05
0.408,-1.84011423796834e-06,1.2716335621457e-05
0.4085,2.29903616784617e-07,8.47131559617601e-06
0.409,3.38091158055251e-06,4.90707557332181e-06
0.4095,5.78931142934473e-06,8.14474176520611e-07
0.41,6.42509349509848e-06,-4.70331425344698e-06
0.4105,5.74973804754882e-06,-1.09528513544957e-05
0.411,4.91117194802074e-06,-1.58784289511165e-05
0.4115,4.56111954387312e-06,-1.75627754665611e-05
0.412,4.38600073474521e-06,-1.56564110086784e-05
0.4125,3.57474601529848e-06,-1.15918207557152e-05
0.413,1.73841430550139e-06,-7.48797415682764e-06
0.4135,-5.42930714811438e-07,-4.8440889040328e-06
0.414,-2.09328118250246e-06,-4.04145888996282e-06
0.4145,-2.05352837713043e-06,-4.37884799210673e-06
0.415,-4.6378403103816e-07,-4.28888112543196e-06
0.4155,1.7957987881108e-06,-2.4601326436126e-06
0.416,3.51440558739469e-06,4.50312707657e-07
0.4165,4.01327146489739e-06,2.10561121526768e-06
0.417,3.87007513307923e-06,1.57218834598659e-06
0.4175,4.3858661205955e-06,1.25757176029825e-06
0.418,5.85217529839899e-06,4.45066267580853e-06
0.4185,6.71158488124358e-06,1.15551318646458e-05
0.419,4.85579788809865e-06,1.97799805186261e-05
0.4195,-5.49877745218813e-07,2.57252613248603e-05
0.42,-8.45757745136889e-06,2.75209996097218e-05
0.4205,-1.62721241800477e-05,2.57845379647242e-05
0.421,-2.07884288597718e-05,2.35895881172972e-05
0.4215,-2.00531061262015e-05,2.41522456770255e-05
0.422,-1.4972683871046e-05,2.70060096975309e-05
0.4225,-8.5812567259861e-06,2.71739746548399e-05
0.423,-3.47687166977777e-06,1.95733755180384e-05
0.4235,-3.85327937958363e-07,4.18295445393871e-06
0.424,9.84745705303584e-07,-1.39151714565952e-05
0.4245,7.7855431681898e-07,-2.93061177572419e-05
0.425,-8.15143105951566e-07,-4.01393463793889e-05
0.4255,-2.83778597964183e-06,-4.74517974912185e-05
0.426,-3.64198525381404e-06,-5.20472785572533e-05
0.4265,-1.88928088044386e-06,-5.3330939943644e-05
0.427,2.23191216489064e-06,-5.11674648745032e-05
0.4275,6.68467524376689e-06,-4.75330889897105e-05
0.428,9.0351801918464e-06,-4.49947206767284e-05
0.4285,8.60253207997517e-06,-4.37460315042641e-05
0.429,6.80056563846559e-06,-4.14724573112994e-05
0.4295,5.25660761145445e-06,-3.62659536090954e-05
0.43,4.31830563990239e-06,-2.81060200587439e-05
0.4305,3.64112422078528e-06,-1.72034831848869e-05
0.431,3.15454308761031e-06,-3.22198314273375e-06
0.4315,2.66963489035892e-06,1.262076511481e-05
0.432,1.46997365321284e-06,2.69820187764052e-05
0.4325,-7.11865380795799e-07,3.79798976040689e-05
0.433,-3.04885629081262e-06,4.77676644758913e-05
0.4335,-4.87638636959146e-06,5.93611506573841e-05
0.434,-6.83282128588959e-06,7.18022119124383e-05
0.4345,-9.66568641646409e-06,8.05270267123834e-05
0.435,-1.24652787064872e-05,8.23715128441115e-05
0.4355,-1.3339970162473e-05,7.85284798214374e-05
0.436,-1.16952063463335e-05,7.23110268481448e-05
0.4365,-8.65250842670775e-06,6.57714429175925e-05
0.437,-5.17870066361806e-06,5.96115868758727e-05
0.4375,-1.12052384898275e-06,5.47615067373862e-05
0.438,3.48277445941993e-06,5.17939644065594e-05
0.4385,7.36992436097327e-06,4.92115554399267e-05
0.439,9.28177421625077e-06,4.43196596142116e-05
0.4395,9.62942505155766e-06,3.59980497124093e-05
0.44,1.00167647526191e-05,2.54395621887061e-05
0.4405,1.11203496383131e-05,1.45012530435692e-05
0.441,1.16811525043672e-05,4.70797198085502e-06
0.4415,9.93250311712642e-06,-2.64665961598088e-06
0.442,5.85270458813452e-06,-7.44427012471444e-06
0.4425,1.65600230135904e-06,-1.19887736533263e-05
0.443,-1.95154289890446e-07,-1.95159401991345e-05
0.4435,6.52124921157708e-07,-3.08012346033879e-05
0.444,2.44582667917237e-06,-4.32116407446311e-05
0.4445,3.57142600550076e-06,-5.32591649126538e-05
0.445,4.0967606250234e-06,-5.92935292270631e-05
0.4455,5.00059570746253e-06,-6.18576745245887e-05
0.446,6.67023073268512e-06,-6.22969712554034e-05
0.4465,8.44717739797161e-06,-6.13123240390858e-05
0.447,9.01511004427817e-06,-5.88926539805918e-05
0.4475,7.11089017147671e-06,-5.56642681489067e-05
0.448,2.66141786080782e-06,-5.35437132731761e-05
0.4485,-2.51733016075022e-06,-5.41935091491364e-05
0.449,-5.90678571412148e-06,-5.72515399264451e-05
0.4495,-6.5777046011557e-06,-6.09146191264818e-05
0.45,-5.8827635754433e-06,-6.39161770047409e-05
0.4505,-5.75806096041131e-06,-6.61344589868892e-05
0.451,-6.85092788542479e-06,-6.73421042392973e-05
0.4515,-8.44654605247721e-06,-6.59619163043412e-05
0.452,-9.65482780659199e-06,-5.96842821583467e-05
0.4525,-1.02453275694242e-05,-4.80150907439289e-05
0.453,-1.05389877062988e-05,-3.41023252109879e-05
0.4535,-1.08145122502901e-05,-2.25741294025179e-05
0.454,-1.07313476505827e-05,-1.45675247952825e-05
0.4545,-9.20004977239424e-06,-6.03591388444648e-06
0.455,-5.20478840873222e-06,7.36549234488862e-06
0.4555,8.11664798884741e-07,2.41121498925641e-05
0.456,6.64651364878292e-06,3.72456202972728e-05
0.4565,9.96629255098726e-06,4.1270880197202e-05
0.457,1.02992328915447e-05,3.74029338490904e-05
0.4575,9.19009992554781e-06,3.18478408546771e-05
0.458,8.41434536650802e-06,3.03558250514611e-05
0.4585,8.27564427851404e-06,3.47559055150967e-05
0.459,7.75271077512751e-06,4.30092294483134e-05
0.4595,6.03056959610119e-06,5.1365175572395e-05
0.46,3.41949486498311e-06,5.71754992538924e-05
0.4605,7.87419075402817e-07,6.05246122307011e-05
0.461,-1.29422502474999e-06,6.30759416731527e-05
0.4615,-2.56155355281009e-06,6.53609441409789e-05
0.462,-2.78922183026039e-06,6.57236531929988e-05
0.4625,-2.06197493400066e-06,6.20304087251135e-05
0.463,-1.02893893304249e-06,5.39854409584643e-05
0.4635,-3.05619332212748e-07,4.3603108179612e-05
0.464,2.92991044676282e-07,3.35988885392121e-05
0.4645,1.38812680949597e-06,2.53703784532566e-05
0.465,2.95295298977981e-06,1.84493376501938e-05
0.4655,4.22079559047258e-06,1.17434985815091e-05
0.466,4.79745020929908e-06,4.91121647123183e-06
0.4665,5.23457013347303e-06,-1.63698360506987e-06
0.467,6.10399234163861e-06,-7.46286095997501e-06
0.4675,6.88804227799333e-06,-1.22774265066198e-05
0.468,6.34988498819657e-06,-1.59489898434158e-05
0.4685,4.03983104377603e-06,-1.89736981043666e-05
0.469,1.01688275411212e-06,-2.22734618851348e-05
0.4695,-1.20917343788001e-06,-2.56562986872025e-05
0.47,-2.28618942090537e-06,-2.71532120985467e-05
0.4705,-3.22560290788146e-06,-2.50804681274955e-05
0.471,-4.98150466500952e-06,-2.04888120031604e-05
0.4715,-7.27099617246297e-06,-1.64846030742018e-05
0.472,-9.13718178756944e-06,-1.50109764696132e-05
0.4725,-1.0271594850621e-05,-1.49610463259967e-05
0.473,-1.11545224882221e-05,-1.37514640641096e-05
0.4735,-1.20414960830946e-05,-1.04754767737924e-05
0.474,-1.24530430386847e-05,-7.00999393678171e-06
0.4745,-1.18015741298791e-05,-5.80581059743855e-06
0.475,-1.01734271161384e-05,-7.16758518130161e-06
0.4755,-8.29744571544108e-06,-9.34955333256481e-06
0.476,-6.82694455120783e-06,-1.07512023045919e-05
0.4765,-5.81669008317806e-06,-1.10565345163599e-05
0.477,-4.99316269424651e-06,-1.06421310245066e-05
0.4775,-4.41286781692287e-06,-9.9399068805454e-06
0.478,-4.59757952640234e-06,-9.31518095702786e-06
0.4785,-5.94297194490518e-06,-8.91032984607511e-06
0.479,-8.18122315120994e-06,-8.61118646611127e-06
0.4795,-1.05402235210034e-05,-8.30569638213967e-06
0.48,-1.22224887419732e-05,-7.89858620604526e-06
0.4805,-1.25896399112627e-05,-7.09830167372081e-06
0.481,-1.12686502590118e-05,-5.56144474630515e-06
0.4815,-8.53229608849537e-06,-3.12703998961573e-06
0.482,-5.37099085647884e-06,3.3637052695869e-07
0.4825,-2.67467589131392e-06,4.84802783198398e-06
0.483,-2.58175466683604e-07,9.73525329566056e-06
0.4835,3.08474842460377e-06,1.37822698371889e-05
0.484,8.36434627463032e-06,1.63725204752003e-05
0.4845,1.49763852048461e-05,1.78609346690865e-05
0.485,2.05117518502208e-05,1.87150213936701e-05
0.4855,2.26126414717739e-05,1.93277406655524e-05
0.486,2.1423668405e-05,2.08131185111087e-05
0.4865,1.961151939528e-05,2.45136211968518e-05
0.487,1.93304885007959e-05,2.98934813687798e-05
0.4875,1.96383278660842e-05,3.38038093074909e-05
0.488,1.77852362021983e-05,3.2708564316439e-05
0.4885,1.28995602634744e-05,2.5464479873737e-05
0.489,7.34064254339496e-06,1.37716383874206e-05
0.4895,4.03150107879525e-06,5.52001913688015e-07
0.49,3.27875127645228e-06,-1.16254269088357e-05
0.4905,2.86754893358744e-06,-2.12477562947533e-05
0.491,9.12951748011786e-07,-2.82048012466482e-05
0.4915,-1.85552831616175e-06,-3.35641481214808e-05
0.492,-2.59512996319894e-06,-3.81998100642243e-05
0.4925,8.00449078320165e-07,-4.14796433278543e-05
0.493,7.11375816343927e-06,-4.1900127285011e-05
0.4935,1.23681106444476e-05,-3.89463510597608e-05
0.494,1.35284762942101e-05,-3.3613542156043e-05
0.4945,1.15535105946175e-05,-2.71457563724292e-05
0.495,1.02953531732001e-05,-2.00303664496899e-05
0.4955,1.23940639735301e-05,-1.24973468294044e-05
0.496,1.66331446859138e-05,-5.5462639675717e-06
0.4965,1.91902387557838e-05,-8.85278034430392e-07
0.497,1.69051237988893e-05,4.94436683020648e-07
0.4975,9.44805847176418e-06,-4.42489295556167e-07
0.498,-7.45489391404996e-07,-1.43207682299406e-06
0.4985,-1.01772105097806e-05,-9.11405098022057e-07
0.499,-1.64014440656273e-05,1.11964401386358e-06
0.4995,-1.89939660271747e-05,4.28178156310606e-06
0.5,-1.87716059043005e-05,8.87739777892125e-06
0.5005,-1.66644294784476e-05,1.50681441750546e-05
0.501,-1.36296941576238e-05,2.17555048923228e-05
0.5015,-1.08709238718085e-05,2.73747199410276e-05
0.502,-9.26619286512738e-06,3.16241494063601e-05
0.5025,-8.79388481492186e-06,3.54085781115974e-05
0.503,-9.04137464223971e-06,3.88094622902329e-05
0.5035,-9.99432717376606e-06,4.0007551754193e-05
0.504,-1.17829055609148e-05,3.71447984301139e-05
0.5045,-1.38486960833211e-05,3.09743349150888e-05
0.505,-1.49799077190911e-05,2.45150514604088e-05
0.5055,-1.42822452599111e-05,1.970985154547e-05
0.506,-1.18302320276347e-05,1.53418314695107e-05
0.5065,-8.42708942612706e-06,8.91962051590044e-06
0.507,-5.04495564744138e-06,-3.50371740469867e-08
0.5075,-2.45301141780758e-06,-9.4199795472491e-06
0.508,-1.02179569015745e-06,-1.70408561302028e-05
0.5085,-6.11940254226825e-07,-2.28743254476687e-05
0.509,-6.07805430977736e-07,-2.84362766952365e-05
0.5095,-2.69218197534375e-07,-3.42390035585922e-05
0.51,7.01948825664295e-07,-3.89418710390908e-05
0.5105,2.01257651538646e-06,-4.16477607187231e-05
0.511,3.29207670907662e-06,-4.3739123209451e-05
0.5115,4.45352280678261e-06,-4.64170164817979e-05
0.512,5.3141620905591e-06,-4.6766012447223e-05
0.5125,5.19060791570203e-06,-3.90004681365064e-05
0.513,3.32967164526272e-06,-2.12052097071119e-05
0.5135,-1.766060408206e-07,4.44372253053099e-07
0.514,-4.16997803025677e-06,1.59512544373177e-05
0.5145,-7.40684796622828e-06,2.00235609656564e-05
0.515,-9.62439014134788e-06,1.57964461848649e-05
0.5155,-1.12197567662539e-05,1.0794946372566e-05
0.516,-1.20288675039749e-05,1.04904561076221e-05
0.5165,-1.11165939313048e-05,1.56474793502559e-05
0.517,-7.96083783469231e-06,2.41658584612171e-05
0.5175,-3.39206011791795e-06,3.38324139308745e-05
0.518,8.9410950096037e-07,4.31747408944309e-05
0.5185,3.65719639283473e-06,5.09222276370647e-05
0.519,4.94902126795653e-06,5.59391127141569e-05
0.5195,5.80154045326776e-06,5.78939675887786e-05
0.52,7.2179945382306e-06,5.73241095967198e-05
0.5205,9.46755089647887e-06,5.45363407057393e-05
0.521,1.20961779817718e-05,4.87527270336882e-05
0.5215,1.42148905966765e-05,3.9006298410569e-05
0.522,1.47828238398093e-05,2.57774757507873e-05
0.5225,1.31622104534955e-05,1.07940138682236e-05
0.523,9.76692820074481e-06,-5.11971409398804e-06
0.5235,5.94822486626258e-06,-2.30765249582763e-05
0.524,3.03413171787945e-06,-4.42339859185581e-05
0.5245,1.60387435795096e-06,-6.71901853948386e-05
0.525,1.55192064073229e-06,-8.79195828762556e-05
0.5255,2.3122481393255e-06,-0.000102408271963825
0.526,2.98854561318354e-06,-0.00010904675084973
0.5265,2.94205268897937e-06,-0.000108482341594764
0.527,2.46981116390416e-06,-0.000102073919500444
0.5275,2.32743971333014e-06,-9.15519877792346e-05
0.528,2.47272079107648e-06,-7.97714966216956e-05
0.5285,2.01396116387016e-06,-6.98022682512588e-05
0.529,6.58466681570083e-07,-6.18477871115783e-05
0.5295,-5.05313365572523e-07,-5.19864169766644e-05
0.53,-1.80112707216993e-07,-3.59823274270909e-05
0.5305,1.53660905760322e-06,-1.46185686989592e-05
0.531,3.1716946950443e-06,6.40871600585332e-06
0.5315,3.44071378462179e-06,2.26605083624444e-05
0.532,2.52862776158158e-06,3.5679784221736e-05
0.5325,1.67433309580157e-06,5.03984407701945e-05
0.533,1.55609554007581e-06,6.86843622576704e-05
0.5335,1.4982138407508e-06,8.69720427102451e-05
0.534,6.46631142472827e-07,0.00010032475400243
0.5345,-4.87440314583272e-07,0.000107551945272814
0.535,-4.70165868043423e-07,0.000111426797690428
0.5355,1.07605561204149e-06,0.000114209658869131
0.536,2.64159054818821e-06,0.00011411480058135
0.5365,2.24466140147414e-06,0.000107183223584988
0.537,-5.62473534224202e-07,9.23533825506786e-05
0.5375,-4.18940796405812e-06,7.33122987680249e-05
0.538,-6.42711635631391e-06,5.48846310947309e-05
0.5385,-6.33738594691458e-06,3.8725170027884e-05
0.539,-4.76898210038495e-06,2.31720495656029e-05
0.5395,-3.27452591748432e-06,6.27454916668155e-06
0.54,-2.8740135388717e-06,-1.18928181280369e-05
0.5405,-3.70238957076893e-06,-2.91825096735215e-05
0.541,-5.18660362657047e-06,-4.27605678460026e-05
0.5415,-6.31995928048829e-06,-5.10328445504164e-05
0.542,-6.34396293642206e-06,-5.50968314225656e-05
0.5425,-5.65772118155466e-06,-5.79806178473728e-05
0.543,-5.63213549929976e-06,-6.13967478124526e-05
0.5435,-6.9098866316899e-06,-6.34078689063933e-05
0.544,-8.22948049489475e-06,-6.06821721482577e-05
0.5445,-7.67524076035204e-06,-5.3211618689314e-05
0.545,-4.91272096639748e-06,-4.51457312573747e-05
0.5455,-1.46942016088778e-06,-4.02269124801516e-05
0.546,1.10559988440587e-06,-3.77804029664919e-05
0.5465,2.65109490333714e-06,-3.4246682130538e-05
0.547,3.89052458357253e-06,-2.77161689073083e-05
0.5475,5.11857514724855e-06,-1.96809786411135e-05
0.548,5.75541408764101e-06,-1.26024340964714e-05
0.5485,5.16387573128495e-06,-7.00331177918481e-06
0.549,3.75392504114252e-06,-1.44568385654019e-06
0.5495,2.88534465286203e-06,5.21940522951902e-06
0.55,3.21393563459456e-06,1.20520197968458e-05
0.5505,3.35445134540006e-06,1.62592937725934e-05
0.551,9.44831407234471e-07,1.52311309769705e-05
0.5515,-4.75674836303265e-06,8.88592629702335e-06
0.552,-1.17504829682917e-05,1.39826311088426e-07
0.5525,-1.68100188972714e-05,-7.42595207436212e-06
0.553,-1.77686406583011e-05,-1.24255036096132e-05
0.5535,-1.45031315029902e-05,-1.57536507121899e-05
0.554,-8.470987978768e-06,-1.80622699869874e-05
0.5545,-1.66517412045959e-06,-1.80814055789329e-05
0.555,4.52063115676899e-06,-1.36167884364922e-05
0.5555,1.00214056775744e-05,-3.64744527261264e-06
0.556,1.55040260194947e-05,1.03425554866341e-05
0.5565,2.0601436106729e-05,2.4372296800706e-05
0.557,2.31959054778537e-05,3.37452288344387e-05
0.5575,2.12865670040344e-05,3.60807099077574e-05
0.558,1.53251481911474e-05,3.28660225246553e-05
0.5585,7.85014778739038e-06,2.75058387932539e-05
0.559,1.04203734182047e-06,2.18749004503886e-05
0.5595,-4.39035169651842e-06,1.525045963e-05
0.56,-8.08794849249803e-06,6.64304713708221e-06
0.5605,-9.16491986284013e-06,-2.43214057687262e-06
0.561,-7.10035757933703e-06,-8.35762839069091e-06
0.5615,-2.92298433347844e-06,-9.03290681819146e-06
0.562,1.05354885995165e-06,-6.56323659341669e-06
0.5625,2.74357217103399e-06,-5.35954806823371e-06
0.563,1.73958597927957e-06,-7.50999179470089e-06
0.5635,-4.90177968622283e-07,-1.10260895377324e-05
0.564,-1.95912260417646e-06,-1.29022379488771e-05
0.5645,-1.83139810742479e-06,-1.25184730017619e-05
0.565,-6.94021405007061e-07,-1.10984619514913e-05
0.5655,5.72308723423754e-07,-9.07067373513163e-06
0.566,1.72161731879017e-06,-5.53093421200862e-06
0.5665,2.90661153426661e-06,6.39918818465204e-09
0.567,3.97863723953455e-06,6.42590891988217e-06
0.5675,4.38400012166493e-06,1.18067223842218e-05
0.568,3.62866019588242e-06,1.52668584799824e-05
0.5685,1.58390043224502e-06,1.79179357714091e-05
0.569,-1.56617772792276e-06,2.14537709095571e-05
0.5695,-5.30432215066997e-06,2.5659072234064e-05
0.57,-8.43893381356602e-06,2.83621860730085e-05
0.5705,-9.03728621706687e-06,2.82796310059233e-05
0.571,-5.69562514834937e-06,2.65334540514843e-05
0.5715,3.91822123431784e-07,2.46696027899042e-05
0.572,5.44404623067966e-06,2.27000316987481e-05
0.5725,6.44064987331747e-06,1.99319346187397e-05
0.573,4.2056270190264e-06,1.61626301567217e-05
0.5735,2.14625302276037e-06,1.11319940726749e-05
0.574,2.16162759131775e-06,4.26411088221338e-06
0.5745,2.9035361406686e-06,-3.98637569438342e-06
0.575,2.2563172466611e-06,-1.15044496826121e-05
0.5755,4.68517780790283e-07,-1.60095756093288e-05
0.576,-1.48067864347858e-07,-1.66130495274287e-05
0.5765,1.5905632743068e-06,-1.38371438912492e-05
0.577,3.88954025392535e-06,-9.20308930535377e-06
0.5775,3.880095190617e-06,-5.06226651324277e-06
0.578,8.81396995878907e-07,-3.55973719085467e-06
0.5785,-2.99807970848991e-06,-4.94300461115668e-06
0.579,-5.442482889255e-06,-7.43830071143955e-06
0.5795,-6.3174062224342e-06,-9.21017166666785e-06
0.58,-7.11423765609354e-06,-9.95677158199644e-06
0.5805,-8.63843644045543e-06,-1.0379831563707e-05
0.581,-1.00950789743396e-05,-1.09024726432749e-05
0.5815,-1.04438503764442e-05,-1.16122588767865e-05
0.582,-9.84248655142082e-06,-1.2886450462568e-05
0.5825,-9.28504904199716e-06,-1.49518862127653e-05
0.583,-9.18652807998373e-06,-1.67773119079907e-05
0.5835,-8.75432128092299e-06,-1.63650805408377e-05
0.584,-6.7336897208982e-06,-1.26286312970858e-05
0.5845,-2.7933431597659e-06,-6.69077743247277e-06
0.585,1.64369046435314e-06,-1.28647343083459e-06
0.5855,4.24881656645441e-06,8.45635623028983e-07
0.586,4.0189063364684e-06,-1.63949293384164e-06
0.5865,2.43679573331794e-06,-8.00600560470912e-06
0.587,1.80447988560638e-06,-1.58536953335548e-05
0.5875,2.71655987958412e-06,-2.25528651348361e-05
0.588,3.90034630836716e-06,-2.65137365407401e-05
0.5885,4.28225175891443e-06,-2.73989815490071e-05
0.589,4.27724266337389e-06,-2.57926664571647e-05
0.5895,4.81887722297251e-06,-2.29065801155571e-05
0.59,5.80508632973616e-06,-2.01160438153946e-05
0.5905,6.09912397044785e-06,-1.84582939090296e-05
0.591,4.83056725219485e-06,-1.85864320683306e-05
0.5915,2.14777521717392e-06,-2.06796595629593e-05
0.592,-1.06500746424067e-06,-2.36072471123177e-05
0.5925,-3.48254461345393e-06,-2.44554142665418e-05
0.593,-3.65347461859007e-06,-2.01777997028792e-05
0.5935,-1.10860849076653e-06,-1.0551482967028e-05
0.594,2.87397939014576e-06,9.1779018401775e-07
0.5945,6.52273592788733e-06,9.95662534933905e-06
0.595,9.26695069750317e-06,1.55618710846846e-05
0.5955,1.11457496273578e-05,2.03639047096227e-05
0.596,1.13109173349013e-05,2.67796157182369e-05
0.5965,8.91754974814528e-06,3.39240435799114e-05
0.597,5.16050895672457e-06,3.91861384253861e-05
0.5975,2.488193244878e-06,4.19089006720963e-05
0.598,1.68161175734499e-06,4.39382209226381e-05
0.5985,1.37322818207255e-06,4.64938034592779e-05
0.599,6.61278941056239e-07,4.79020495631253e-05
0.5995,5.51059646704853e-07,4.53371514237838e-05
0.6,2.16592228671934e-06,3.84376003977666e-05
0.6005,4.75184686804239e-06,3.05190034457303e-05
0.601,6.32171848971082e-06,2.58814880462054e-05
0.6015,5.69753704698077e-06,2.58413174254765e-05
0.602,3.36586444856338e-06,2.76315210912892e-05
0.6025,7.19522601295776e-07,2.7383028375994e-05
0.603,-1.20227949469328e-06,2.37391266935991e-05
0.6035,-2.53370914136668e-06,1.81689719138944e-05
0.604,-4.2929899916547e-06,1.25266302681217e-05
0.6045,-7.02868123548392e-06,7.46808669539575e-06
0.605,-9.90184899688985e-06,3.11435566785951e-06
0.6055,-1.15104750261273e-05,-8.80011916687308e-08
0.606,-1.13922707280082e-05,-2.02503552211544e-06
0.6065,-1.02391295763929e-05,-3.88252274775457e-06
0.607,-8.88616117775871e-06,-7.36249203872379e-06
0.6075,-7.62893062272769e-06,-1.26720468821447e-05
0.608,-6.41193759223567e-06,-1.80664299609314e-05
0.6085,-5.22539260497813e-06,-2.1943258560215e-05
0.609,-4.22336327073606e-06,-2.47595941248595e-05
0.6095,-3.59907508497942e-06,-2.80282652500063e-05
0.61,-3.36653556022021e-06,-3.18135734227006e-05
0.6105,-3.21171702240707e-06,-3.42943005659092e-05
0.611,-2.63703251723559e-06,-3.38940189368473e-05
0.6115,-1.44387886907382e-06,-3.10790588707339e-05
0.612,-1.0250465121805e-07,-2.79297954568248e-05
0.6125,5.69348738640133e-07,-2.65055009530606e-05
0.613,2.0236601749512e-07,-2.75807885309966e-05
0.6135,-8.08733562339316e-07,-3.01957602071748e-05
0.614,-1.80757597411179e-06,-3.20807405771585e-05
0.6145,-2.39117265461881e-06,-3.09413367380694e-05
0.615,-2.31439624365866e-06,-2.58160678049213e-05
0.6155,-1.28452785086063e-06,-1.74557200356369e-05
0.616,7.44394952674998e-07,-7.73037421074547e-06
0.6165,3.1382165092444e-06,1.16530106051622e-06
0.617,4.77613467972069e-06,7.48942475337796e-06
0.6175,4.94533756268395e-06,1.07657119302922e-05
0.618,4.09921825586224e-06,1.19145120196681e-05
0.6185,3.53531774547663e-06,1.22011399550739e-05
0.619,4.14959561263388e-06,1.21530895546682e-05
0.6195,5.5948197901506e-06,1.1830712545698e-05
0.62,6.72703858994098e-06,1.18187786708471e-05
0.6205,6.70144154923196e-06,1.31338587214902e-05
0.621,5.5541865114853e-06,1.58094006046221e-05
0.6215,3.92366249036181e-06,1.80697979161751e-05
0.622,2.42596850156962e-06,1.75903137960825e-05
0.6225,1.36450624633038e-06,1.36008586589025e-05
0.623,9.59219980086707e-07,7.42530959722717e-06
0.6235,1.54005225617249e-06,1.24866967269978e-06
0.624,3.10409171021428e-06,-3.1812424357266e-06
0.6245,4.68245194512508e-06,-5.27322343032163e-06
0.625,4.68312576164664e-06,-6.1249060255399e-06
0.6255,2.29143670962247e-06,-8.13919078918851e-06
0.626,-1.61774329897629e-06,-1.28916270050776e-05
0.6265,-5.25243900916872e-06,-1.89454566297069e-05
0.627,-7.49589222551058e-06,-2.24731049912925e-05
0.6275,-8.49687580588483e-06,-2.06071934680395e-05
0.628,-8.82308632146359e-06,-1.40528880767368e-05
0.6285,-8.55380683295875e-06,-6.31703443535917e-06
0.629,-7.53346035905988e-06,-7.3728108450978e-07
0.6295,-6.15415451539528e-06,1.73530842709301e-06
0.63,-5.18110032587751e-06,2.70077059798995e-06
0.6305,-4.68800153276041e-06,4.94922128900446e-06
0.631,-3.81019527463713e-06,1.0468645098748e-05
0.6315,-1.95382094355845e-06,1.89616662075355e-05
0.632,2.19505479740598e-07,2.8083386192962e-05
0.6325,1.54380872644376e-06,3.53009928972617e-05
0.633,1.86398104622114e-06,3.97224838886463e-05
0.6335,2.31031877107045e-06,4.24049384601772e-05
0.634,3.97638259124031e-06,4.49933788781584e-05
0.6345,6.48417672645638e-06,4.76984362323681e-05
0.635,7.97724029540304e-06,4.84839071540603e-05
0.6355,6.69457241335616e-06,4.48579087437652e-05
0.636,2.72866211605476e-06,3.66917723114412e-05
0.6365,-1.77460602134075e-06,2.65302631124263e-05
0.637,-4.24508032069769e-06,1.70554911874951e-05
0.6375,-3.54374553337067e-06,9.42755118568002e-06
0.638,-3.90329672860102e-07,4.15082067401156e-06
0.6385,3.59900998928715e-06,1.54930021117181e-06
0.639,7.08668893352846e-06,3.55194467807689e-07
0.6395,9.6393932071008e-06,-2.49914353288553e-06
0.64,1.16515531458174e-05,-9.161420730418e-06
0.6405,1.35480172959345e-05,-1.87142115783408e-05
0.641,1.48905674392031e-05,-2.86532585405921e-05
0.6415,1.46043200138697e-05,-3.75602435896349e-05
0.642,1.23486134268109e-05,-4.51647443881466e-05
0.6425,9.33778130460537e-06,-5.03829924218196e-05
0.643,7.36330908594753e-06,-5.09915406731504e-05
0.6435,6.93752325215454e-06,-4.60883537220875e-05
0.644,6.74585157146208e-06,-3.79743711574246e-05
0.6445,5.31588891166544e-06,-3.01050855052229e-05
0.645,2.9684739687036e-06,-2.3360805345258e-05
0.6455,1.35396596755403e-06,-1.61063518290893e-05
0.646,1.00700092704258e-06,-8.11983190295873e-06
0.6465,3.09123719911822e-07,-2.17082723198233e-06
0.647,-2.58644179125943e-06,-6.401396790997e-07
0.6475,-7.44608399588141e-06,-2.46143074828661e-06
0.648,-1.21744501980643e-05,-4.61082731072925e-06
0.6485,-1.49336925108879e-05,-5.06313518761241e-06
0.649,-1.55572626214226e-05,-3.26641153437201e-06
0.6495,-1.51981008012634e-05,6.18462204553043e-07
0.65,-1.51211214252279e-05,5.43741259925106e-06
0.6505,-1.57867716678444e-05,8.96457485000141e-06
0.651,-1.66792518021445e-05,9.45442249440152e-06
0.6515,-1.68262999719971e-05,6.97323726066642e-06
0.652,-1.56643461533503e-05,2.65850515020222e-06
0.6525,-1.3580819573147e-05,-2.6582193266136e-06
0.653,-1.15742638407596e-05,-8.5567014196984e-06
0.6535,-1.03618252354323e-05,-1.44566626935733e-05
0.654,-9.91851685345209e-06,-1.95803953020719e-05
0.6545,-9.81886906524795e-06,-2.33303784822796e-05
0.655,-9.71615335759327e-06,-2.55749376198724e-05
0.6555,-9.32571960561432e-06,-2.65004248481568e-05
0.656,-8.18818905710145e-06,-2.58760718526153e-05
0.6565,-5.85186080101916e-06,-2.27300393365912e-05
0.657,-2.41140400797893e-06,-1.66263831455438e-05
0.6575,1.38298655200542e-06,-9.1480461440073e-06
0.658,4.76198701036408e-06,-2.91332898581071e-06
0.6585,7.53597587846606e-06,1.09212058445799e-06
0.659,9.9237837541987e-06,4.13941024005538e-06
0.6595,1.1979311278508e-05,7.66382898010367e-06
0.66,1.3354692861157e-05,1.18985363546959e-05
0.6605,1.36020934422991e-05,1.68831377729523e-05
0.661,1.27290261480477e-05,2.33529519999305e-05
0.6615,1.1403273197814e-05,3.1665323540984e-05
0.662,1.03848409121601e-05,4.04911416623368e-05
0.6625,9.74755088742982e-06,4.72778576143941e-05
0.663,8.92934376865245e-06,4.9822655476305e-05
0.6635,7.66688977882401e-06,4.7368791975685e-05
0.664,6.68328599725822e-06,4.09627187407374e-05
0.6645,7.05832282732183e-06,3.31890546093744e-05
0.665,8.6565288822503e-06,2.67178136934653e-05
0.6655,9.59944057432072e-06,2.21965228641142e-05
0.666,8.10107128877764e-06,1.79597923075138e-05
0.6665,4.76564003799879e-06,1.25709296915038e-05
0.667,2.11810637182986e-06,7.13934483820924e-06
0.6675,1.64253057753591e-06,3.99426059341866e-06
0.668,2.18166736435443e-06,3.3471180060231e-06
0.6685,1.59084635120518e-06,2.78688772241406e-06
0.669,-8.61515176675533e-07,2.66638347691624e-07
0.6695,-4.07852243745203e-06,-4.00509843977614e-06
0.67,-6.28942432334185e-06,-8.98852165848601e-06
0.6705,-6.25736356139787e-06,-1.43231693228342e-05
0.671,-4.24356914350249e-06,-1.98347847162397e-05
0.6715,-2.43490400189091e-06,-2.52580982653262e-05
0.672,-3.61172335633259e-06,-3.09656518884753e-05
0.6725,-8.25723775330899e-06,-3.71583532001004e-05
0.673,-1.32210535235788e-05,-4.18087934046802e-05
0.6735,-1.4288093081734e-05,-4.15302514956025e-05
0.674,-1.01036521612442e-05,-3.56819867811308e-05
0.6745,-2.88648730372691e-06,-2.79328683771124e-05
0.675,4.29923000734836e-06,-2.23126555073054e-05
0.6755,9.82397598202e-06,-1.90419980882809e-05
0.676,1.33030643034247e-05,-1.58428086172612e-05
0.6765,1.46026807866425e-05,-1.20285018965016e-05
0.677,1.36165291225565e-05,-8.88113986892447e-06
0.6775,1.04802757986034e-05,-6.44303690016288e-06
0.678,5.76490439203073e-06,-2.66163814562567e-06
0.6785,6.3272946310878e-07,3.49597164448794e-06
0.679,-3.45462818703342e-06,1.01074478867034e-05
0.6795,-5.58551161813085e-06,1.48430097563063e-05
0.68,-5.86867577402692e-06,1.83248806358327e-05
0.6805,-4.93773109728809e-06,2.34381321731736e-05
0.681,-3.32049266473788e-06,3.14895026610756e-05
0.6815,-1.4482595410997e-06,4.02790928360121e-05
0.682,2.45853117336793e-07,4.64889161451362e-05
0.6825,1.64736931223093e-06,4.92717018592755e-05
0.683,3.00632359410037e-06,5.063772945427e-05
0.6835,4.29781581361586e-06,5.24808306442654e-05
0.684,4.84004335548025e-06,5.4123620059754e-05
0.6845,3.86872591529352e-06,5.31685474156638e-05
0.685,1.33149977496491e-06,4.8270675912071e-05
0.6855,-2.01916110550536e-06,4.05854906402232e-05
0.686,-5.14251185834373e-06,3.26774600702122e-05
0.6865,-7.26360357080418e-06,2.65186615713484e-05
0.687,-8.18196109079027e-06,2.26344135143907e-05
0.6875,-8.24512615308822e-06,2.04976841656052e-05
0.688,-7.94703935672703e-06,1.88503796886057e-05
0.6885,-7.44758512834705e-06,1.56846185251216e-05
0.689,-6.51458768794757e-06,8.92273234356101e-06
0.6895,-4.92466762800215e-06,-2.2451014259695e-06
0.69,-2.82037758189753e-06,-1.67951288189826e-05
0.6905,-6.25493944294286e-07,-3.25075967555144e-05
0.691,1.40405296065176e-06,-4.68640768322685e-05
0.6915,3.54300074133855e-06,-5.78070055770044e-05
0.692,6.35185643122472e-06,-6.46035864736307e-05
0.6925,9.83869742226878e-06,-6.82264096650486e-05
0.693,1.29408341769616e-05,-7.03625405833449e-05
0.6935,1.42049074330147e-05,-7.17223026944001e-05
0.694,1.30803454609551e-05,-7.15403877801412e-05
0.6945,1.02352086806315e-05,-6.89241588435477e-05
0.695,6.54088871437297e-06,-6.44024978774002e-05
0.6955,2.22846242998447e-06,-5.98133104445053e-05
0.696,-2.66915672254279e-06,-5.68830069291084e-05
0.6965,-7.46220575622002e-06,-5.61371068843526e-05
0.697,-1.09376958182794e-05,-5.65727443565364e-05
0.6975,-1.24225981111637e-05,-5.57154629303911e-05
0.698,-1.24829838194196e-05,-5.05393901727343e-05
0.6985,-1.2392905954178e-05,-3.94206308248848e-05
0.699,-1.29525628655231e-05,-2.34762818679706e-05
0.6995,-1.39838280239714e-05,-5.77060736699284e-06
0.7,-1.48861719739804e-05,1.06344802852627e-05
0.7005,-1.52715564883035e-05,2.37051954752597e-05
0.701,-1.489471910495e-05,3.23140962898854e-05
0.7015,-1.33968604391169e-05,3.62956264210878e-05
0.702,-1.06055188831143e-05,3.67093242908994e-05
0.7025,-6.95798027740673e-06,3.51408580664269e-05
0.703,-3.16327972393272e-06,3.26327660521296e-05
0.7035,4.81577834992644e-07,3.00053348186937e-05
0.704,3.92115104913093e-06,2.8824908294202e-05
0.7045,6.61930346380275e-06,3.07053310715773e-05
0.705,7.8174386791994e-06,3.54296721555019e-05
0.7055,7.72993719124302e-06,4.04471559948692e-05
0.706,7.78709405125669e-06,4.21208986160089e-05
0.7065,9.11818919792271e-06,3.7364630474249e-05
0.707,1.09467622886781e-05,2.54673440400125e-05
0.7075,1.10525064179182e-05,9.67617249338378e-06
0.708,8.19435770086819e-06,-3.86473740134051e-06
0.7085,3.82803844672485e-06,-1.04693395885143e-05
0.709,9.60483114425475e-07,-1.04068971184902e-05
0.7095,1.38609789505692e-06,-7.41052776289189e-06
0.71,4.33044545465365e-06,-4.24100951367657e-06
0.7105,7.48517601284744e-06,-8.26181876568835e-07
0.711,8.88562254130247e-06,3.76667496064287e-06
0.7115,8.00231195307977e-06,9.30161155266045e-06
0.712,5.6383795230717e-06,1.46891882856121e-05
0.7125,3.03254115293494e-06,1.91077084859875e-05
0.713,9.3526657657202e-07,2.23119944016989e-05
0.7135,-6.21199860195673e-07,2.45698537934752e-05
0.714,-1.80606282819676e-06,2.66750338400009e-05
0.7145,-2.36200110994002e-06,2.95388623345786e-05
0.715,-1.51987410695972e-06,3.33513100751157e-05
0.7155,1.39753248632063e-06,3.71995076505202e-05
0.716,6.10921129127254e-06,3.96519644083535e-05
0.7165,1.09722742503761e-05,3.97235190053939e-05
0.717,1.35685001029834e-05,3.73423438058248e-05
0.7175,1.21804518033702e-05,3.32424644211229e-05
0.718,7.23264540451525e-06,2.87442369423226e-05
0.7185,1.29621898218532e-06,2.52817663155016e-05
0.719,-2.82506182951222e-06,2.33573011899092e-05
0.7195,-4.30522710043417e-06,2.18818242796237e-05
0.72,-4.5169819624839e-06,1.9148691567737e-05
0.7205,-5.18131516540416e-06,1.46018469738183e-05
0.721,-6.64952851907844e-06,9.30736804172594e-06
0.7215,-7.89353296225258e-06,4.7166274673221e-06
0.722,-7.59567504787103e-06,1.21404438085567e-06
0.7225,-5.06891813698731e-06,-2.26677864569098e-06
0.723,-6.67082451379652e-07,-7.43460199377419e-06
0.7235,4.18399641351013e-06,-1.52337224584043e-05
0.724,7.48511878507524e-06,-2.48625126877359e-05
0.7245,7.67123438995396e-06,-3.43083455030999e-05
0.725,4.56235466926275e-06,-4.22789910463963e-05
0.7255,-3.86899632537376e-07,-4.94065400264735e-05
0.726,-4.84760912414421e-06,-5.68079359797575e-05
0.7265,-7.06187521677344e-06,-6.35711440274174e-05
0.727,-6.85183195449211e-06,-6.6835762248116e-05
0.7275,-5.2573392721062e-06,-6.4937803026171e-05
0.728,-3.37410581541441e-06,-5.97257303934267e-05
0.7285,-1.73412360991848e-06,-5.48440378997398e-05
0.729,-4.02357387943547e-07,-5.16490745952673e-05
0.7295,9.60028671213222e-07,-4.75399009818485e-05
0.73,2.95903105427244e-06,-3.90508451291196e-05
0.7305,5.71492356347557e-06,-2.62920202603028e-05
0.731,8.20912534776233e-06,-1.33766040969171e-05
0.7315,8.84636417687397e-06,-4.51968207976171e-06
0.732,6.76085572969353e-06,-5.47240018512658e-07
0.7325,2.42942446414276e-06,1.08095708247311e-06
0.733,-2.8606426646622e-06,3.89579083852476e-06
0.7335,-7.87398419018558e-06,9.83472264206421e-06
0.734,-1.1686283253301e-05,1.7864480362743e-05
0.7345,-1.3416854221821e-05,2.49719780423966e-05
0.735,-1.24332962130371e-05,2.89844921785751e-05
0.7355,-9.2340624230629e-06,3.02712264767685e-05
0.736,-5.59125450976589e-06,3.05082007237006e-05
0.7365,-3.06025909154366e-06,3.05920538974783e-05
0.737,-1.38026235354442e-06,3.04366102052197e-05
0.7375,1.12532737763524e-06,2.98731814796334e-05
0.738,5.37089254107176e-06,2.85053158160788e-05
0.7385,9.98067630898305e-06,2.52839707925291e-05
0.739,1.22698525530867e-05,1.96601024299165e-05
0.7395,1.08061098959217e-05,1.28690425171945e-05
0.74,6.66476449349816e-06,6.64811978920093e-06
0.7405,1.9659493356489e-06,8.08470569549038e-07
0.741,-2.31544337486052e-06,-6.40086531406235e-06
0.7415,-6.49557501508288e-06,-1.53685314149628e-05
0.742,-1.05288144895641e-05,-2.40208714668712e-05
0.7425,-1.3246809230113e-05,-2.99563722428259e-05
0.743,-1.35832627149287e-05,-3.23749778943133e-05
0.7435,-1.18860226995155e-05,-3.16131680898557e-05
0.744,-9.44804116386582e-06,-2.80420460897266e-05
0.7445,-7.02400801817294e-06,-2.18294193738634e-05
0.745,-4.39148302508248e-06,-1.30716708840382e-05
0.7455,-1.36807748687261e-06,-2.37045672532378e-06
0.746,1.37853431411217e-06,8.12794424440312e-06
0.7465,2.93338530252787e-06,1.53245227940428e-05
0.747,3.14090794345831e-06,1.8203737917037e-05
0.7475,2.51152812546549e-06,1.95982129464833e-05
0.748,1.40950010469235e-06,2.34181886964689e-05
0.7485,-7.93113063613354e-08,3.03338257892742e-05
0.749,-1.56696585281726e-06,3.72796839999599e-05
0.7495,-2.22403766836797e-06,4.08993393367474e-05
0.75,-1.4227565078042e-06,4.03982062869241e-05
0.7505,6.59677662830925e-07,3.72789521934095e-05
0.751,3.13525386831181e-06,3.34413335518402e-05
0.7515,5.015581502517e-06,2.9665356922812e-05
0.752,5.79595477211691e-06,2.52112281041613e-05
0.7525,5.68730236235322e-06,1.87935783650455e-05
0.753,5.43297772572055e-06,1.03658459893329e-05
0.7535,5.67380544800416e-06,1.81339836613261e-06
0.754,6.14024030290633e-06,-4.62896592115309e-06
0.7545,5.6718591053899e-06,-8.66745342745149e-06
0.755,3.59345094683435e-06,-1.2303884830999e-05
0.7555,9.12540995651621e-07,-1.78537572261183e-05
0.756,-5.71537672338701e-07,-2.57415970265624e-05
0.7565,-2.4256279132366e-07,-3.40032601940628e-05
0.757,1.01829787981768e-06,-3.96676544094489e-05
0.7575,2.31212106205449e-06,-4.09604613204169e-05
0.758,3.56756093974098e-06,-3.86404534278312e-05
0.7585,4.87962332724698e-06,-3.5221323013678e-05
0.759,5.85070842511561e-06,-3.28304023152854e-05
0.7595,5.94484755130043e-06,-3.16492033338053e-05
0.76,5.26237839123382e-06,-2.99343041003698e-05
0.7605,4.76622709982122e-06,-2.55875356295015e-05
0.761,5.52691373393416e-06,-1.8260272967374e-05
0.7615,7.53597037237087e-06,-9.50098054931229e-06
0.762,9.4216260011553e-06,-1.99614994613355e-07
0.7625,9.59795894911643e-06,1.07501700446825e-05
0.763,7.60866446721188e-06,2.36821781014919e-05
0.7635,4.21299905126477e-06,3.55574377418058e-05
0.764,4.20258436858961e-07,4.24987437352298e-05
0.7645,-3.20171132351288e-06,4.41196678129444e-05
0.765,-6.35012045058696e-06,4.32579067387063e-05
0.7655,-8.5864606506107e-06,4.21191976841787e-05
0.766,-9.47113326721114e-06,4.06785729680912e-05
0.7665,-9.09663329200032e-06,3.83413206644666e-05
0.767,-8.22419410133169e-06,3.50780797506953e-05
0.7675,-7.66402269129701e-06,3.08659721887274e-05
0.768,-7.59556487245226e-06,2.56991103166759e-05
0.7685,-7.71255509300841e-06,2.03805220489638e-05
0.769,-7.87259678644383e-06,1.58436687967819e-05
0.7695,-8.10725692043159e-06,1.13698269125023e-05
0.77,-7.97917776016662e-06,4.96129078400492e-06
0.7705,-6.60309949796622e-06,-3.7333396696966e-06
0.771,-3.65466975546781e-06,-1.2032442536769e-05
0.7715,9.29167122049473e-08,-1.69912183205037e-05
0.772,3.51604092324984e-06,-1.90822677783677e-05
0.7725,6.0470590220709e-06,-2.1801484335088e-05
0.773,7.70226182969223e-06,-2.74918176985432e-05
0.7735,8.58001986918752e-06,-3.48679529334334e-05
0.774,8.43430864923659e-06,-4.13243355099704e-05
0.7745,6.66663461050516e-06,-4.6273414497208e-05
0.775,3.03961035107037e-06,-5.06795354468323e-05
0.7755,-1.47572262950818e-06,-5.4281672342567e-05
0.776,-5.03777122027252e-06,-5.53846264975043e-05
0.7765,-6.34900960347742e-06,-5.32505158588686e-05
0.777,-5.439517298692e-06,-4.89320579291028e-05
0.7775,-3.14586505851829e-06,-4.36476119996635e-05
0.778,-3.40463139397313e-07,-3.76017465259795e-05
0.7785,2.35994553139152e-06,-3.03546119443818e-05
0.779,4.53741463721692e-06,-2.14909806283188e-05
0.7795,5.52661841941263e-06,-1.12261381461033e-05
0.78,4.0223642631076e-06,-8.78715794026123e-07
0.7805,-9.70183941179058e-07,7.81219927711315e-06
0.781,-8.25421786660073e-06,1.42676982364998e-05
0.7815,-1.43817239480852e-05,1.95778541437016e-05
0.782,-1.62804694607444e-05,2.5340510466319e-05
0.7825,-1.35810246864073e-05,3.22281173299154e-05
0.783,-8.20249756469153e-06,3.94081893610679e-05
0.7835,-2.51694894612983e-06,4.50176467112074e-05
0.784,1.72337848434421e-06,4.73901976583016e-05
0.7845,3.6599129406783e-06,4.5987531258666e-05
0.785,3.52075598432374e-06,4.12244991738207e-05
0.7855,2.43931887589972e-06,3.40081368235079e-05
0.786,1.61098108469873e-06,2.58521906516022e-05
0.7865,1.46897120064079e-06,1.85930654617604e-05
0.787,1.5730346943244e-06,1.30730731572557e-05
0.7875,1.11268256208302e-06,8.54966782030338e-06
0.788,-4.7433348419153e-07,4.04776300398794e-06
0.7885,-3.1690109686167e-06,-2.5901974148037e-07
0.789,-6.41575033061226e-06,-3.58202321535848e-06
0.7895,-9.31880756591212e-06,-5.78225164433375e-06
0.79,-1.08173949938634e-05,-7.44525091184447e-06
0.7905,-1.00196725569282e-05,-9.11707829751255e-06
0.791,-6.83400109687592e-06,-1.08922434711977e-05
0.7915,-2.40478085776228e-06,-1.23681069598949e-05
0.792,1.4304438927101e-06,-1.27565727761331e-05
0.7925,3.56131796051545e-06,-1.14178466657517e-05
0.793,4.61520014858925e-06,-8.42904795279723e-06
0.7935,6.44863918907215e-06,-4.4173146694637e-06
0.794,1.04921499973608e-05,-3.26557229374275e-09
0.7945,1.64676391329907e-05,4.29236073576921e-06
0.795,2.27398956548392e-05,7.89152281545498e-06
0.7955,2.79889023837121e-05,1.04089396132402e-05
0.796,3.22331240593746e-05,1.19744794549629e-05
0.7965,3.57172358600439e-05,1.28576641722102e-05
0.797,3.71033019130053e-05,1.26608088479742e-05
0.7975,3.3889220502073e-05,1.02497667358583e-05
0.798,2.50208342361309e-05,5.00373516540307e-06
0.7985,1.22742929453495e-05,-1.64332837280668e-06
0.799,-1.29691725483779e-06,-6.35861416792347e-06
0.7995,-1.3342972775766e-05,-6.3338396796266e-06
0.8,-2.22293993594345e-05,-1.69287538092403e-06
0.8005,-2.65141470871492e-05,4.76156689704304e-06
0.801,-2.59532068577921e-05,1.001400350627e-05
0.8015,-2.25288006559515e-05,1.2848224282909e-05
0.802,-1.90433464620712e-05,1.40105956454316e-05
0.8025,-1.66648106157743e-05,1.51226058232534e-05
0.803,-1.47489467573948e-05,1.72495802530372e-05
0.8035,-1.27920295746952e-05,1.9861821823229e-05
0.804,-1.13064279746555e-05,2.10676871531842e-05
0.8045,-1.06084807923996e-05,1.92284713456941e-05
0.805,-9.95064594208986e-06,1.44753284418734e-05
0.8055,-8.50977665060338e-06,8.45313851794835e-06
0.806,-6.46299169854313e-06,2.7286581465384e-06
0.8065,-4.4389856600193e-06,-1.94693571920664e-06
0.807,-2.60021086749551e-06,-4.9015469052018e-06
0.8075,-1.05808677560747e-06,-5.3416944601156e-06
0.808,-6.22948810237719e-07,-3.63398196652137e-06
0.8085,-2.1112692588025e-06,-1.87266236971811e-06
0.809,-4.973671214842e-06,-2.17768219929542e-06
0.8095,-7.31606902111204e-06,-4.77565583310522e-06
0.81,-7.32783139804244e-06,-8.34803009622641e-06
0.8105,-4.31461635119648e-06,-1.18696863345508e-05
0.811,1.3708396528519e-06,-1.53691725653561e-05
0.8115,8.58459273344824e-06,-1.89232046282995e-05
0.812,1.55029123412915e-05,-2.18305688065382e-05
0.8125,2.04046223388977e-05,-2.35682399047306e-05
0.813,2.29079347071738e-05,-2.50200920813407e-05
0.8135,2.39329078261964e-05,-2.75239620269444e-05
0.814,2.40519626914097e-05,-3.08262456738958e-05
0.8145,2.24115662902578e-05,-3.33032369248947e-05
0.815,1.7670711214856e-05,-3.4336831649897e-05
0.8155,9.57915078820468e-06,-3.52214266702462e-05
0.816,-4.79138180141812e-07,-3.73927882752093e-05
0.8165,-9.90184861846294e-06,-4.0720930897237e-05
0.817,-1.59340114107515e-05,-4.38391037055791e-05
0.8175,-1.73954230267016e-05,-4.52938713349758e-05
0.818,-1.56911620235037e-05,-4.39713304468557e-05
0.8185,-1.34411410600825e-05,-3.91905814941406e-05
0.819,-1.20370219226189e-05,-3.10547720703151e-05
0.8195,-1.10943125889296e-05,-2.01320047426654e-05
0.82,-9.91871360672451e-06,-6.19662195995916e-06
0.8205,-8.45928523393659e-06,1.16489044482657e-05
0.821,-6.80880803701322e-06,3.22443969263158e-05
0.8215,-4.78598325159042e-06,5.06512819946999e-05
0.822,-2.55053829831704e-06,6.13098184190937e-05
0.8225,-1.11105258193962e-06,6.32571064722944e-05
0.823,-1.5115648550637e-06,6.0763952847241e-05
0.8235,-3.54555214271944e-06,5.8296988546808e-05
0.824,-5.78663539177756e-06,5.59893669344098e-05
0.8245,-6.94956532883075e-06,5.07150955711131e-05
0.825,-6.80407476412465e-06,4.04919872089464e-05
0.8255,-5.63840003996387e-06,2.66309263003146e-05
0.826,-3.2282323459081e-06,1.23063011006721e-05
0.8265,1.20896852751512e-06,5.81554576255211e-07
0.827,7.90624386878315e-06,-6.43584869870422e-06
0.8275,1.56576100212245e-05,-8.30379236019478e-06
0.828,2.24302822150289e-05,-6.79900407691276e-06
0.8285,2.69353457334275e-05,-4.92602562753934e-06
0.829,2.92901201373166e-05,-4.85340276867e-06
0.8295,2.99230229435262e-05,-6.94796861056557e-06
0.83,2.80748515115527e-05,-1.05061096870584e-05
0.8305,2.20241344266032e-05,-1.46643531417579e-05
0.831,1.13333624306143e-05,-1.83570502340585e-05
0.8315,-1.41710102728951e-06,-2.00781303983125e-05
0.832,-1.21171523434653e-05,-1.87402037303733e-05
0.8325,-1.87187005903605e-05,-1.5042337205246e-05
0.833,-2.25589915641738e-05,-1.11627650427267e-05
0.8335,-2.55956973161268e-05,-8.47014952989457e-06
0.834,-2.72982251850021e-05,-6.03531903731134e-06
0.8345,-2.55052361413378e-05,-1.89397068053162e-06
0.835,-1.99803672853716e-05,4.78113286215627e-06
0.8355,-1.36512833257498e-05,1.3147071114005e-05
0.836,-9.83032683079353e-06,2.14293180743588e-05
0.8365,-9.08743872747743e-06,2.75646045102533e-05
0.837,-9.49441460514276e-06,3.01391078092338e-05
0.8375,-9.31730103552056e-06,2.97785386384032e-05
0.838,-8.5876784427164e-06,2.89516349540848e-05
0.8385,-8.22742492710092e-06,2.92401247992487e-05
0.839,-8.5494684951318e-06,2.92480175590742e-05
0.8395,-8.89811552873462e-06,2.64518855942793e-05
0.84,-8.23839290975596e-06,2.07673926807238e-05
0.8405,-5.86933024720832e-06,1.47381008885869e-05
0.841,-1.91554612639293e-06,1.01387075129251e-05
0.8415,2.73888779024832e-06,5.94884248537354e-06
0.842,7.23378745908245e-06,2.03465017015519e-07
0.8425,1.14753944461977e-05,-7.33009333927415e-06
0.843,1.58499983367105e-05,-1.50688854412017e-05
0.8435,2.00818401179801e-05,-2.15597536981202e-05
0.844,2.26063002546675e-05,-2.66841762417185e-05
0.8445,2.15667160177693e-05,-3.08910661011934e-05
0.845,1.67678855851027e-05,-3.3830217448883e-05
0.8455,1.04265323410266e-05,-3.43460893212804e-05
0.846,5.51024512706263e-06,-3.18156944409768e-05
0.8465,3.2535431184015e-06,-2.69774763135731e-05
0.847,2.578849224314e-06,-2.13080230132265e-05
0.8475,1.85645553078221e-06,-1.61320969988428e-05
0.848,7.01728507060702e-07,-1.25640478995423e-05
0.8485,-6.43183978743769e-08,-1.15097827318046e-05
0.849,2.98057050974927e-07,-1.29266641966899e-05
0.8495,1.52751164195642e-06,-1.54445593195594e-05
0.85,2.53991181091421e-06,-1.74160027682911e-05
0.8505,2.34340312324184e-06,-1.81273274296362e-05
0.851,7.96182589476862e-07,-1.75593661736172e-05
0.8515,-1.45661796853224e-06,-1.55376312091898e-05
0.852,-3.60700569873826e-06,-1.19303576344682e-05
0.8525,-5.07504053887838e-06,-7.36791249666811e-06
0.853,-5.41210427409018e-06,-2.92606274049698e-06
0.8535,-4.20262104174858e-06,8.70151768724843e-07
0.854,-1.35162644415057e-06,4.17066397223501e-06
0.8545,2.60971598201095e-06,6.99622869071132e-06
0.855,6.76089174396192e-06,8.72619680473051e-06
0.8555,1.03352741054828e-05,8.41674609544962e-06
0.856,1.29438356671797e-05,5.609363166911e-06
0.8565,1.44931456543853e-05,9.89883556852847e-07
0.857,1.51027254559171e-05,-3.87397766726439e-06
0.8575,1.49470509883188e-05,-7.5851307919595e-06
0.858,1.39999577041435e-05,-9.50010994401575e-06
0.8585,1.20213479274221e-05,-9.57921178237779e-06
0.859,9.00371303206865e-06,-8.44833794165634e-06
0.8595,5.7099632802659e-06,-7.31988613876812e-06
0.86,3.41274594710113e-06,-6.88346257107274e-06
0.8605,2.53097612298862e-06,-6.57932637316822e-06
0.861,1.65812430047382e-06,-5.81541007020803e-06
0.8615,-1.18908257794683e-06,-5.21468734756629e-06
0.862,-6.08995157007172e-06,-5.51478625319105e-06
0.8625,-1.07519920165624e-05,-5.87928186620288e-06
0.863,-1.29400421314454e-05,-4.51940254559949e-06
0.8635,-1.27342373818046e-05,-4.15832718000265e-07
0.864,-1.19367368841958e-05,6.73969964341328e-06
0.8645,-1.19035787564085e-05,1.75504856694858e-05
0.865,-1.26511044825023e-05,3.20512114912196e-05
0.8655,-1.37163118107743e-05,4.77244076235508e-05
0.866,-1.50363205329846e-05,6.01581182157147e-05
0.8665,-1.66830420643836e-05,6.68591682921648e-05
0.867,-1.81171107013855e-05,6.946370657283e-05
0.8675,-1.83134444879033e-05,7.09248985788059e-05
0.868,-1.68772554460393e-05,7.14579484583344e-05
0.8685,-1.46536288243048e-05,6.91058944906356e-05
0.869,-1.2827682468696e-05,6.37905744392856e-05
0.8695,-1.16563487332355e-05,5.8397426171665e-05
0.87,-1.04363745410153e-05,5.51522283868781e-05
0.8705,-8.45327651180431e-06,5.2699842169585e-05
0.871,-5.53065559392981e-06,4.79973888184836e-05
0.8715,-1.77096002453744e-06,4.00470524259118e-05
0.872,2.85591462559753e-06,3.045136799129e-05
0.8725,8.59517454086241e-06,2.08036445859403e-05
0.873,1.56306822477709e-05,1.08033563577279e-05
0.8735,2.3558109252797e-05,-9.37957532993916e-07
0.874,3.10855067525199e-05,-1.49714529271821e-05
0.8745,3.65429889581563e-05,-3.02346097056591e-05
0.875,3.88252231931996e-05,-4.49712689972271e-05
0.8755,3.77435757283235e-05,-5.79706788857525e-05
0.876,3.3695311579499e-05,-6.86351511309541e-05
0.8765,2.73357736688036e-05,-7.64888276986959e-05
0.877,1.92943740722105e-05,-8.17329995404411e-05
0.8775,9.77200035061243e-06,-8.60575412914748e-05
0.878,-1.29870782199873e-06,-9.14142415971092e-05
0.8785,-1.32494679988592e-05,-9.75511419116746e-05
0.879,-2.40727630735014e-05,-0.000101902015032516
0.8795,-3.1273145643819e-05,-0.000102420364380376
0.88,-3.34795981460002e-05,-9.93854666931998e-05
0.8805,-3.14263595156219e-05,-9.36531971288039e-05
0.881,-2.7577654254286e-05,-8.44445439859193e-05
0.8815,-2.45306438138241e-05,-7.05151228650123e-05
0.882,-2.3217203136246e-05,-5.28057614763877e-05
0.8825,-2.244565133008e-05,-3.39244554815816e-05
0.883,-2.03353919383289e-05,-1.51630827223898e-05
0.8835,-1.62069931649857e-05,3.75002198327635e-06
0.884,-1.09854131709088e-05,2.15282475297314e-05
0.8845,-6.01380035206646e-06,3.44492353117428e-05
0.885,-1.86477555947619e-06,4.03694046586847e-05
0.8855,1.77040454656662e-06,4.23392548079971e-05
0.886,5.39386625832363e-06,4.61400516384105e-05
0.8865,8.92060402999209e-06,5.40406844733763e-05
0.887,1.14146647922463e-05,6.2149829893199e-05
0.8875,1.17714821010721e-05,6.45588912663793e-05
0.888,9.86651796935971e-06,5.96277721351325e-05
0.8885,6.82495063880367e-06,5.12413404287547e-05
0.889,4.04205359610652e-06,4.36698980967379e-05
0.8895,2.25367659641697e-06,3.65487387674405e-05
0.89,1.53059750987997e-06,2.63457963967265e-05
0.8905,1.56984205746799e-06,1.20163859544438e-05
0.891,1.92000553535898e-06,-2.75953240797753e-06
0.8915,2.51999286866915e-06,-1.3178573281214e-05
0.892,3.93923488390433e-06,-1.77107719592905e-05
0.8925,6.37258559373917e-06,-1.85018070832038e-05
0.893,8.61845532877858e-06,-1.8620338849003e-05
0.8935,8.99684007257057e-06,-1.96153457811397e-05
0.894,7.10281267424543e-06,-2.08354741903244e-05
0.8945,3.69213943723215e-06,-1.99748775401066e-05
0.895,-7.29518665548117e-07,-1.44994556089593e-05
0.8955,-5.75435380291395e-06,-3.74338583072804e-06
0.896,-9.71435201244353e-06,9.77914790764626e-06
0.8965,-1.03104484406378e-05,2.17732974077676e-05
0.897,-7.23292549188786e-06,2.97744784997415e-05
0.8975,-2.89264035631161e-06,3.53882313692325e-05
0.898,1.99583059624047e-07,4.23774055478345e-05
0.8985,1.89483000730175e-06,5.24173643318772e-05
0.899,3.64034741556953e-06,6.30513018627793e-05
0.8995,6.12436129024152e-06,6.97452899383592e-05
0.9,8.52136257218425e-06,6.96552227466024e-05
0.9005,9.61558724664955e-06,6.37370874982004e-05
0.901,8.91581465273913e-06,5.58688316446185e-05
0.9015,6.81026552198056e-06,4.99439191346786e-05
0.902,4.23805768733578e-06,4.72591364375506e-05
0.9025,2.2913461850613e-06,4.61753107767238e-05
0.903,1.60641504248198e-06,4.3955871106929e-05
0.9035,1.78736052434921e-06,3.90182781942842e-05
0.904,1.80110221050296e-06,3.19239732811927e-05
0.9045,1.39213969969982e-06,2.44062248330079e-05
0.905,1.70756780648917e-06,1.71854393455151e-05
0.9055,3.84422520283984e-06,8.8870455272344e-06
0.906,7.065593371729e-06,-2.2900680090952e-06
0.9065,9.3627586182512e-06,-1.59907944234577e-05
0.907,9.9307745400688e-06,-2.97285249777483e-05
0.9075,1.03767264992972e-05,-4.15746723105919e-05
0.908,1.29266598119663e-05,-5.17497102435357e-05
0.9085,1.74996484575757e-05,-6.11872883447312e-05
0.909,2.10136296973976e-05,-6.96531142523702e-05
0.9095,2.01965007216392e-05,-7.61744173624106e-05
0.91,1.52113773189918e-05,-8.07197871524107e-05
0.9105,9.61456807886121e-06,-8.44194641961777e-05
0.911,6.05562107740126e-06,-8.80666008441135e-05
0.9115,3.18509355221568e-06,-9.10442421188282e-05
0.912,-1.72131423964885e-06,-9.19983384821486e-05
0.9125,-8.16082614679042e-06,-9.01641060340723e-05
0.913,-1.26113097765326e-05,-8.54934825342406e-05
0.9135,-1.29527173010304e-05,-7.7676172835386e-05
0.914,-1.06481555438635e-05,-6.62728409147442e-05
0.9145,-8.5410401070213e-06,-5.26064923176286e-05
0.915,-8.23015276421154e-06,-4.03430874397038e-05
0.9155,-9.85254633942437e-06,-3.26193272092935e-05
0.916,-1.29138159343755e-05,-2.89910624968882e-05
0.9165,-1.65203417183027e-05,-2.635302989713e-05
0.917,-1.95023006039393e-05,-2.22460979113227e-05
0.9175,-2.11070091855207e-05,-1.59919187632209e-05
0.918,-2.15631992232679e-05,-7.25732071259329e-06
0.9185,-2.1589466290592e-05,4.60579717224769e-06
0.919,-2.13154315188479e-05,1.92892207778012e-05
0.9195,-2.00554975392046e-05,3.46295969872244e-05
0.92,-1.72404290221723e-05,4.77972571913397e-05
0.9205,-1.3175446575846e-05,5.73053414520484e-05
0.921,-8.75509974545934e-06,6.35289645457208e-05
0.9215,-4.76823888339021e-06,6.73574710479803e-05
0.922,-1.5279387915288e-06,6.88239018822436e-05
0.9225,1.13210260969671e-06,6.73835879726191e-05
0.923,3.58329558269386e-06,6.34125136290744e-05
0.9235,6.00287855359896e-06,5.89575518012796e-05
0.924,8.22216397669033e-06,5.64399400039277e-05
0.9245,9.91914774899703e-06,5.6346031865799e-05
0.925,1.08413718911421e-05,5.64608825123907e-05
0.9255,1.09306254062529e-05,5.3864655112267e-05
0.926,1.04342987809261e-05,4.78082751353916e-05
0.9265,9.81673329079687e-06,4.02948109816575e-05
0.927,9.39782914898365e-06,3.37680193288962e-05
0.9275,9.24155111022139e-06,2.88952192301785e-05
0.928,9.50299171464636e-06,2.50962930232658e-05
0.9285,1.04847694087992e-05,2.24583400568386e-05
0.929,1.2057347027348e-05,2.18481660142155e-05
0.9295,1.34286308884497e-05,2.31279384113766e-05
0.93,1.3877470676237e-05,2.44932566162023e-05
0.9305,1.3360463132676e-05,2.42101801122541e-05
0.931,1.20197482292279e-05,2.23790820700517e-05
0.9315,9.50573702801206e-06,2.04477571420918e-05
0.932,5.28605393210917e-06,1.93719098606747e-05
0.9325,-5.92984903398543e-07,1.87373092062811e-05
0.933,-7.30513427801528e-06,1.74830327477955e-05
0.9335,-1.34853970576954e-05,1.49333499747606e-05
0.934,-1.76476901545219e-05,1.09700955048099e-05
0.9345,-1.90330502405471e-05,5.63638081075571e-06
0.935,-1.82887730353834e-05,-8.78417549972025e-07
0.9355,-1.67747183411467e-05,-7.72044952642835e-06
0.936,-1.50544548329188e-05,-1.32404684512375e-05
0.9365,-1.25790444053189e-05,-1.60692791311429e-05
0.937,-8.9180981634894e-06,-1.65504724716628e-05
0.9375,-4.76305349282263e-06,-1.65501770736718e-05
0.938,-1.52528343327507e-06,-1.76926757040216e-05
0.9385,-1.62277659185712e-07,-2.06548147653595e-05
0.939,-3.96467331305914e-07,-2.62368678419803e-05
0.9395,-9.55954101318458e-07,-3.53632903776674e-05
0.94,-5.97962997982858e-07,-4.70693826315622e-05
0.9405,1.10572584732447e-06,-5.79875303352263e-05
0.941,3.86105731196097e-06,-6.50630698942158e-05
0.9415,7.0547326979038e-06,-6.77654204409612e-05
0.942,9.87272824735306e-06,-6.6993573578856e-05
0.9425,1.15171543238452e-05,-6.35650589621566e-05
0.943,1.17922664223767e-05,-5.89327976937299e-05
0.9435,1.13431871296928e-05,-5.53218368394835e-05
0.944,1.09641132002239e-05,-5.29529032281486e-05
0.9445,1.06531132667721e-05,-4.84181757519259e-05
0.945,9.59625541003561e-06,-3.83355903035123e-05
0.9455,7.14354526175765e-06,-2.43639528262304e-05
0.946,3.56414369730722e-06,-1.25978848342908e-05
0.9465,-1.10504370716247e-07,-7.6877316270878e-06
0.947,-2.5082195165718e-06,-8.69191551357063e-06
0.9475,-2.38333564359421e-06,-1.06750374039709e-05
0.948,2.2352035815784e-07,-9.15599800154127e-06
0.9485,3.14212309164859e-06,-2.99383906411533e-06
0.949,3.75000222119685e-06,5.56410191251421e-06
0.9495,2.00336143281113e-06,1.30428290606255e-05
0.95,5.62979786134646e-07,1.77166560482824e-05
0.9505,1.40602488724723e-06,2.04765112356302e-05
0.951,3.60811091257506e-06,2.21603997449522e-05
0.9515,5.09069234593727e-06,2.10974517042217e-05
0.952,5.23554547856733e-06,1.51047184718266e-05
0.9525,4.80332764075324e-06,5.37015215784475e-06
0.953,4.16576340494258e-06,-3.87009744238041e-06
0.9535,2.70140707227907e-06,-9.89593214009531e-06
0.954,-2.32384252900575e-07,-1.39377600329186e-05
0.9545,-4.28297093963182e-06,-1.81934669291578e-05
0.955,-8.17916599850572e-06,-2.20690910079028e-05
0.9555,-1.09182753025608e-05,-2.33227905343358e-05
0.956,-1.2845772994664e-05,-2.20531940108746e-05
0.9565,-1.49870137356115e-05,-2.05286475900173e-05
0.957,-1.70424001581627e-05,-1.84620807881258e-05
0.9575,-1.68199661303001e-05,-1.16935215676367e-05
0.958,-1.24248658413296e-05,2.34467197871817e-06
0.9585,-4.7656901130092e-06,2.00426557314555e-05
0.959,2.68171829515059e-06,3.47881976425221e-05
0.9595,6.63549893263968e-06,4.35401519991808e-05
0.96,6.33804937832732e-06,4.83687862474892e-05
0.9605,3.31670222074019e-06,5.21182580157248e-05
0.961,-5.85638438066228e-07,5.44988622887033e-05
0.9615,-4.46528251156982e-06,5.32683500148828e-05
0.962,-7.94162884906198e-06,4.83548303909972e-05
0.9625,-1.04084639955284e-05,4.31476052185636e-05
0.963,-1.11742239465742e-05,4.10151999045244e-05
0.9635,-9.95705171898795e-06,4.16645855728054e-05
0.964,-6.98552547162819e-06,4.21443734007838e-05
0.9645,-3.11298294444544e-06,4.06350334614903e-05
0.965,-5.49764613586699e-08,3.76744931083791e-05
0.9655,4.30378184971221e-07,3.41528632000593e-05
0.966,-1.45402876911285e-06,3.01685238510788e-05
0.9665,-2.94401784806497e-06,2.61907468213206e-05
0.967,-1.3892035557592e-06,2.34208708947305e-05
0.9675,2.64073683232072e-06,2.20546320256503e-05
0.968,6.24950606104666e-06,2.06267934989478e-05
0.9685,8.11412094344001e-06,1.80889399844807e-05
0.969,9.67688392352507e-06,1.53120241739611e-05
0.9695,1.20051787362639e-05,1.34594307988225e-05
0.97,1.3572585523848e-05,1.18972624666176e-05
0.9705,1.25077648722167e-05,8.95728420852402e-06
0.971,9.41249003144467e-06,4.21552729770465e-06
0.9715,6.316912789652e-06,-1.21760205188205e-06
0.972,4.11932725753932e-06,-6.59782631569503e-06
0.9725,2.82054306907617e-06,-1.25193477087899e-05
0.973,3.24516490018458e-06,-1.93665753716522e-05
0.9735,6.34612255719975e-06,-2.56719644806303e-05
0.974,1.08776900733464e-05,-2.93745445105222e-05
0.9745,1.35553028257341e-05,-3.0718898417033e-05
0.975,1.22141338445839e-05,-3.24123801040674e-05
0.9755,7.94968052652042e-06,-3.61821419874154e-05
0.976,3.59224831051876e-06,-4.04694041475594e-05
0.9765,7.03241663966549e-07,-4.25559761490163e-05
0.977,-1.324458847402e-06,-4.18081197573646e-05
0.9775,-3.6971043243763e-06,-3.96196472792224e-05
0.978,-6.59859005549583e-06,-3.71044496771748e-05
0.9785,-9.2141487067165e-06,-3.41411367061237e-05
0.979,-1.08450531692441e-05,-3.02828936841526e-05
0.9795,-1.14754937725036e-05,-2.56655657767066e-05
0.98,-1.11102573196068e-05,-2.09013786718261e-05
0.9805,-9.10278650690377e-06,-1.62499426955243e-05
0.981,-4.85528093926898e-06,-1.10693799445764e-05
0.9815,8.5607987623973e-07,-4.54663576896316e-06
0.982,5.85085755367858e-06,2.90116732011053e-06
0.9825,8.14559639081889e-06,9.51210936327704e-06
0.983,7.56966891211109e-06,1.37335263419502e-05
0.9835,5.78261160564362e-06,1.55072939349726e-05
0.984,4.67134512159731e-06,1.58999214742858e-05
0.9845,4.71046266859144e-06,1.58970145139279e-05
0.985,4.99193243644401e-06,1.58922046326379e-05
0.9855,4.81282919792666e-06,1.61879049244509e-05
0.986,4.6470460286624e-06,1.71887634387114e-05
0.9865,4.87078505178943e-06,1.81901756586934e-05
0.987,3.94326670669278e-06,1.64576587668289e-05
0.9875,-6.37450616428619e-07,9.37358324160485e-06
0.988,-8.88686664817726e-06,-1.78754493995164e-06
0.9885,-1.69788953633044e-05,-1.17221014587517e-05
0.989,-2.04804382149628e-05,-1.59907892437055e-05
0.9895,-1.85022730889301e-05,-1.53775845698394e-05
0.99,-1.38873134072395e-05,-1.44622043091377e-05
0.9905,-9.82671091490649e-06,-1.63218812982346e-05
0.991,-7.22580821767333e-06,-1.9433134142383e-05
0.9915,-5.17568719052236e-06,-1.97254751077704e-05
0.992,-2.98699784926351e-06,-1.53722870290482e-05
0.9925,-1.19901674661037e-06,-9.45389620290982e-06
0.993,-7.41298169920762e-07,-7.33423177642787e-06
0.9935,-1.51867381241931e-06,-1.08387587349996e-05
0.994,-2.20784867667281e-06,-1.57868361264649e-05
0.9945,-1.54490462892525e-06,-1.64998865305448e-05
0.995,4.34555394550804e-07,-1.2329928243358e-05
0.9955,2.56634230829614e-06,-8.34804163066945e-06
0.996,3.75649881766771e-06,-9.63052246825441e-06
0.9965,3.8844001799929e-06,-1.61148281660604e-05
0.997,3.68382581149901e-06,-2.32362389856318e-05
0.9975,3.93746903387861e-06,-2.63680784313843e-05
0.998,4.88131662258924e-06,-2.40492420525689e-05
0.9985,6.2906972949664e-06,-1.80036878246291e-05
0.999,7.77520411920542e-06,-1.13021762210733e-05
0.9995,8.72643463868906e-06,-6.24826526859334e-06
1,8.21734238614601e-06,-2.98459128135373e-06
1.0005,5.44712341659561e-06,1.31105170070045e-07
1.001,6.27449458305805e-07,4.57557896360174e-06
1.0015,-4.55952268662574e-06,1.02968381746996e-05
1.002,-7.80931789162554e-06,1.62929795247919e-05
1.0025,-7.98281776512604e-06,2.17980908347462e-05
1.003,-5.96314041812472e-06,2.65660620972316e-05
1.0035,-3.41210690853504e-06,3.06855624255051e-05
1.004,-9.124414801925e-07,3.46155481840403e-05
1.0045,2.17661411508839e-06,3.89086517135975e-05
1.005,6.17166163066386e-06,4.31390209067558e-05
1.0055,9.99052413324218e-06,4.50880881561237e-05
1.006,1.18551007704538e-05,4.20517160912452e-05
1.0065,1.08471557594751e-05,3.40044629309302e-05
1.007,7.69737667481406e-06,2.49021298214932e-05
1.0075,4.2078248730581e-06,1.94210418276316e-05
1.008,1.87703377652733e-06,1.84736682814535e-05
1.0085,8.62644879283352e-07,1.91003664493154e-05
1.009,2.18546502428653e-07,1.84576498413899e-05
1.0095,-8.32833547650871e-07,1.6375238069047e-05
1.01,-2.06139189044859e-06,1.39801818963057e-05
1.0105,-2.77493352714027e-06,1.15317451990041e-05
1.011,-2.80227604329854e-06,8.58632742726846e-06
1.0115,-2.47687410172504e-06,5.51186242858954e-06
1.012,-1.86605569233418e-06,3.64751630769058e-06
1.0125,-6.11497074727243e-07,3.69221713197787e-06
1.013,1.33530018842628e-06,4.5748046111023e-06
1.0135,3.21673557082898e-06,4.5273890072092e-06
1.014,4.03763979849114e-06,3.10677863785644e-06
1.0145,3.55353072246899e-06,1.59628619602616e-06
1.015,2.45714387026395e-06,1.37802799267027e-06
1.0155,1.60949272699694e-06,2.38640812718467e-06
1.016,1.28726033919162e-06,3.23139000262846e-06
1.0165,1.11855118315521e-06,2.32830306415568e-06
1.017,5.15930126231649e-07,-1.14412515362085e-06
1.0175,-7.89922919677037e-07,-6.68790597495123e-06
1.018,-2.48266019436659e-06,-1.26071200649257e-05
1.0185,-3.97985553675853e-06,-1.72453053960514e-05
1.019,-5.02697070515201e-06,-2.03950897138903e-05
1.0195,-5.78070487453254e-06,-2.32383180045981e-05
1.02,-6.33098894345715e-06,-2.69366724588529e-05
1.0205,-6.48291332512894e-06,-3.15326713297789e-05
1.021,-6.21834895054136e-06,-3.60351529300865e-05
1.0215,-6.17403878161778e-06,-3.92119727402968e-05
1.022,-7.22047720615298e-06,-4.03499479977047e-05
1.0225,-9.35675672038018e-06,-3.94986888389701e-05
1.023,-1.13787259305833e-05,-3.70998422889603e-05
1.0235,-1.20611600851671e-05,-3.36471738372818e-05
1.024,-1.14246592963574e-05,-3.00499413670018e-05
1.0245,-1.03868144153013e-05,-2.7815383584082e-05
1.025,-9.43967647939101e-06,-2.76255744978136e-05
1.0255,-8.2350796088021e-06,-2.76607341762621e-05
1.026,-6.32122429862832e-06,-2.48461825321566e-05
1.0265,-3.79475119427089e-06,-1.83973575450268e-05
1.027,-1.26543414415141e-06,-1.08287638999395e-05
1.0275,6.29977226792796e-07,-4.62501983635434e-06
1.028,1.88989277807112e-06,9.117805604034e-07
1.0285,3.33625191419454e-06,8.26950192257962e-06
1.029,5.6393713236375e-06,1.78609223929718e-05
1.0295,8.06041232057597e-06,2.71063043486514e-05
1.03,8.81239096181299e-06,3.36043653310587e-05
1.0305,7.05086133804766e-06,3.79030640541682e-05
1.031,4.08900534495689e-06,4.22018318910541e-05
1.0315,2.21847183291931e-06,4.70548297680115e-05
1.032,2.56696606837983e-06,5.06234537030311e-05
1.0325,4.45358958077869e-06,5.11414164339546e-05
1.033,6.49152240521317e-06,4.88593253719417e-05
1.0335,7.74938161347341e-06,4.50525829107498e-05
1.034,8.10163013896071e-06,4.02835765100927e-05
1.0345,8.19605596002759e-06,3.45994954668314e-05
1.035,9.02928195727696e-06,2.84858680623099e-05
1.0355,1.08193254759926e-05,2.24332862391668e-05
1.036,1.21589563028665e-05,1.61854079792244e-05
1.0365,1.09132001047444e-05,9.44888949225877e-06
1.037,6.2938640725654e-06,2.85135423934918e-06
1.0375,-2.71638787537352e-07,-2.69545047794632e-06
1.038,-6.4615990715398e-06,-7.25638191265337e-06
1.0385,-1.08108904042601e-05,-1.17402429219862e-05
1.039,-1.30467563144407e-05,-1.65393261885766e-05
1.0395,-1.34045213920041e-05,-2.0824850852939e-05
1.04,-1.22065850015777e-05,-2.34221481879908e-05
1.0405,-9.91759178925931e-06,-2.40403844307795e-05
1.041,-7.25667163095666e-06,-2.31304300691399e-05
1.0415,-5.14287662611297e-06,-2.07376732687122e-05
1.042,-4.16262468505389e-06,-1.63971594760003e-05
1.0425,-3.6492382700429e-06,-1.04501453427504e-05
1.043,-1.7021959965832e-06,-4.77798920176155e-06
1.0435,3.00294523662442e-06,-1.72629178242882e-06
1.044,9.53176367235823e-06,-2.26621714456622e-06
1.0445,1.57375819903031e-05,-5.0862494803839e-06
1.045,2.10262519718054e-05,-7.68268674868105e-06
1.0455,2.70138854672613e-05,-8.88410270321166e-06
1.046,3.49330659343267e-05,-9.93549019937998e-06
1.0465,4.30501944614257e-05,-1.22516129458075e-05
1.047,4.72429801221201e-05,-1.48220180973221e-05
1.0475,4.408645961916e-05,-1.54689605319803e-05
1.048,3.34521196931447e-05,-1.45720596162172e-05
1.0485,1.84794737000001e-05,-1.58388984890197e-05
1.049,3.26870283953677e-06,-2.24173261783702e-05
1.0495,-9.37318180889945e-06,-3.27759530735484e-05
1.05,-1.84380214496825e-05,-4.15642145436035e-05
1.0505,-2.41612847689921e-05,-4.51117448278347e-05
1.051,-2.74458955255366e-05,-4.51412770218244e-05
1.0515,-2.89800894925581e-05,-4.57468976610131e-05
1.052,-2.85492060119294e-05,-4.76769040706273e-05
1.0525,-2.60726953749774e-05,-4.78401441863695e-05
1.053,-2.32270505919693e-05,-4.37650928858898e-05
1.0535,-2.24707865360968e-05,-3.55106142203696e-05
1.054,-2.40433988059243e-05,-2.31633233159011e-05
1.0545,-2.53083628557772e-05,-5.86110106787724e-06
1.055,-2.36581022885631e-05,1.53848012862013e-05
1.0555,-1.90661094002455e-05,3.62212866041981e-05
1.056,-1.3380795796138e-05,5.19036330275139e-05
1.0565,-8.16918495352552e-06,6.0796943884897e-05
1.057,-3.88598087555727e-06,6.44059434660806e-05
1.0575,-3.78217182302681e-07,6.49717590565475e-05
1.058,2.57526939683614e-06,6.35235734360008e-05
1.0585,5.04084509890889e-06,5.94825555284619e-05
1.059,6.90862520740616e-06,5.17385196870628e-05
1.0595,8.12891389574725e-06,4.05431912455148e-05
1.06,8.82410406175529e-06,2.83293427878024e-05
1.0605,8.84201140459817e-06,1.7986909105343e-05
1.061,7.48094756230839e-06,1.03413178209254e-05
1.0615,4.37613486694096e-06,4.12319267808433e-06
1.062,6.16988448711636e-07,-1.68708072605277e-06
1.0625,-1.86622249432545e-06,-6.58337109115112e-06
1.063,-2.2653850869245e-06,-9.53833275529341e-06
1.0635,-1.56357203186672e-06,-9.97597759409971e-06
1.064,-1.10088425622128e-06,-7.61586477716539e-06
1.0645,-1.23765612624795e-06,-2.61541074117102e-06
1.065,-1.59405903477079e-06,3.77014713504837e-06
1.0655,-1.76395819592684e-06,9.54501140427949e-06
1.066,-1.47636974001326e-06,1.35007266681777e-05
1.0665,-6.89639425869979e-07,1.63859150375851e-05
1.067,2.2384459847578e-07,2.06436599966574e-05
1.0675,8.033914820193e-07,2.85775875122835e-05
1.068,9.99598216936028e-07,3.97708500591901e-05
1.0685,9.41430648690399e-07,5.01628980249802e-05
1.069,3.96337888156205e-07,5.47749195853225e-05
1.0695,-1.00230341822151e-06,5.20364528487397e-05
1.07,-3.03710660223882e-06,4.4896043548017e-05
1.0705,-4.75649597137782e-06,3.73480068504112e-05
1.071,-5.06106489375606e-06,3.06278936338966e-05
1.0715,-3.50049577104938e-06,2.31876696042542e-05
1.072,-7.82228372920477e-07,1.32078702680099e-05
1.0725,1.54768702132271e-06,1.77072452820124e-08
1.073,2.33059143629359e-06,-1.61112847385117e-05
1.0735,1.86154513839666e-06,-3.40986523005957e-05
1.074,1.55026788223316e-06,-5.21240760298441e-05
1.0745,2.34717309958065e-06,-6.85586197987752e-05
1.075,3.49101504469208e-06,-8.2843693182534e-05
1.0755,3.0191922933988e-06,-9.50016227372078e-05
1.076,-1.27632206929805e-07,-0.000104475548434322
1.0765,-4.48438798713817e-06,-0.000109721704735129
1.077,-7.03794055807815e-06,-0.000108864097903703
1.0775,-6.11282438037713e-06,-0.000101066805807753
1.078,-2.89309076474537e-06,-8.78239174435101e-05
1.0785,1.42093952875289e-07,-7.26485459456349e-05
1.079,1.66876592171359e-06,-5.88364252580546e-05
1.0795,2.00676208753087e-06,-4.75885516756345e-05
1.08,2.01716092618252e-06,-3.82843336924257e-05
1.0805,2.52974316060847e-06,-2.9376856907408e-05
1.081,4.50345508556165e-06,-1.84174961763092e-05
1.0815,8.57060965116203e-06,-3.10036916842315e-06
1.082,1.40673239911841e-05,1.57374146766816e-05
1.0825,1.91259907683731e-05,3.33643243705065e-05
1.083,2.20786704333893e-05,4.56681591224338e-05
1.0835,2.24783415448069e-05,5.35997864534835e-05
1.084,2.07247178215935e-05,6.09057820358398e-05
1.0845,1.73141023254459e-05,6.84295348634815e-05
1.085,1.27396574626526e-05,7.33366495836555e-05
1.0855,7.61711664468303e-06,7.34056273989625e-05
1.086,2.57981514707243e-06,6.93331611733966e-05
1.0865,-1.7063879039238e-06,6.27850535237738e-05
1.087,-4.46327237859277e-06,5.46547913035919e-05
1.0875,-5.1798967328572e-06,4.59350899831246e-05
1.088,-4.13966160900159e-06,3.84192353787068e-05
1.0885,-2.27500982715254e-06,3.32683734859742e-05
1.089,-4.46060933995864e-07,2.97406529287686e-05
1.0895,9.3758229249985e-07,2.62746711387805e-05
1.09,1.56651539097397e-06,2.21956020618042e-05
1.0905,9.4599398765207e-07,1.76484306674787e-05
1.091,-1.00451082695684e-06,1.27864142685194e-05
1.0915,-3.2665064930385e-06,8.15231482125072e-06
1.092,-4.44944411460273e-06,5.09783816625885e-06
1.0925,-4.35069785638056e-06,4.41643660223713e-06
1.093,-4.1212900484953e-06,4.88653428654144e-06
1.0935,-4.71707255704251e-06,4.47471337401786e-06
1.094,-5.79208700234688e-06,2.87966368289558e-06
1.0945,-6.40017982040651e-06,1.6078489657833e-06
1.095,-6.36582983409142e-06,1.43118899775982e-06
1.0955,-6.47523849917879e-06,1.156033901989e-06
1.096,-7.31282732606107e-06,-5.77354016024155e-07
1.0965,-8.3977330919933e-06,-3.48954211022046e-06
1.097,-8.84645262090859e-06,-6.36602438401012e-06
1.0975,-8.59640488732462e-06,-8.63269857230254e-06
1.098,-8.41175534022803e-06,-1.05656919305182e-05
1.0985,-8.68534258630237e-06,-1.26163254503192e-05
1.099,-8.81100182080228e-06,-1.5045600973662e-05
1.0995,-8.01306749091661e-06,-1.78013132189671e-05
1.1,-6.32671003784533e-06,-2.04296063015508e-05
1.1005,-4.33024504562766e-06,-2.22272641238182e-05
1.101,-2.29788691152246e-06,-2.25476218730002e-05
1.1015,-1.67970013061857e-07,-2.11986712018091e-05
1.102,1.90005788543079e-06,-1.90242718436659e-05
1.1025,3.47525185335946e-06,-1.78819782130204e-05
1.103,4.23253474373789e-06,-1.90830070360836e-05
1.1035,4.04166399534467e-06,-2.15722938155974e-05
1.104,2.92962995232458e-06,-2.244236980688e-05
1.1045,1.25390292878487e-06,-1.97079692305615e-05
1.105,-3.83119122912392e-07,-1.41305298404946e-05
1.1055,-1.65105365760068e-06,-8.11468776099149e-06
1.106,-2.69755940939464e-06,-3.47254063854679e-06
1.1065,-3.78864296972675e-06,-7.93593785830707e-07
1.107,-5.0035557642574e-06,-4.43478740664004e-07
1.1075,-6.15603430444705e-06,-2.96474637353457e-06
1.108,-6.65651805999875e-06,-7.87501518337724e-06
1.1085,-5.66249114852882e-06,-1.27246173479236e-05
1.109,-2.90093767842789e-06,-1.45796798626625e-05
1.1095,6.32554225626746e-07,-1.29464972156554e-05
1.11,3.15077351221695e-06,-1.06987353157402e-05
1.1105,3.37441534279518e-06,-1.14163464456876e-05
1.111,1.35860401498599e-06,-1.56144458211855e-05
1.1115,-1.73062691733977e-06,-1.98225441624419e-05
1.112,-4.40388155436813e-06,-1.971916384117e-05
1.1125,-5.55359703430683e-06,-1.42765987185136e-05
1.113,-4.83287251978724e-06,-6.54578724802448e-06
1.1135,-2.65358124753937e-06,-2.10890838157993e-07
1.114,1.80844968623491e-07,4.10023770536632e-06
1.1145,2.87402479806651e-06,8.37658509964794e-06
1.115,4.75233958722604e-06,1.35250526295135e-05
1.1155,5.37557225092883e-06,1.77675312129645e-05
1.116,4.80230829430103e-06,1.94169873579323e-05
1.1165,3.42210344847578e-06,1.94609041357207e-05
1.117,1.41541277897686e-06,1.96799297573378e-05
1.1175,-9.56499022892066e-07,1.96378219457935e-05
1.118,-2.44714994549184e-06,1.79444694816077e-05
1.1185,-1.40857234522213e-06,1.56891230389123e-05
1.119,2.20514809510494e-06,1.58648954963928e-05
1.1195,6.56121130642516e-06,1.93758863701608e-05
1.12,1.02091691912281e-05,2.40391853851771e-05
1.1205,1.34225805544077e-05,2.77706728113619e-05
1.121,1.68139321693862e-05,3.03146633056802e-05
1.1215,2.00025651287049e-05,3.10945260035446e-05
1.122,2.22151808074552e-05,2.77151525929802e-05
1.1225,2.27823232823765e-05,1.84027407549312e-05
1.123,2.06101492300133e-05,4.99018366150371e-06
1.1235,1.49533860606385e-05,-7.99340155727061e-06
1.124,7.5336250801418e-06,-1.70093667854375e-05
1.1245,2.21267342238903e-06,-2.15620535140459e-05
1.125,1.24305526204953e-06,-2.31892231520945e-05
1.1255,2.62697992547451e-06,-2.35655926633464e-05
1.126,2.17130139564976e-06,-2.34337097190432e-05
1.1265,-2.16255938865494e-06,-2.24683532455868e-05
1.127,-8.55102447446255e-06,-2.01586458175923e-05
1.1275,-1.36360456106356e-05,-1.70634605391476e-05
1.128,-1.57279108771735e-05,-1.44602214733564e-05
1.1285,-1.54384705387237e-05,-1.22238673719721e-05
1.129,-1.38912809027421e-05,-8.05040642473422e-06
1.1295,-1.13195379967904e-05,6.54396021342708e-08
1.13,-7.68370783837824e-06,1.08913335978541e-05
1.1305,-3.98940399914591e-06,2.04257965444502e-05
1.131,-2.08987084983491e-06,2.54255397119862e-05
1.1315,-2.93381265498577e-06,2.59286777348069e-05
1.132,-5.48097498400039e-06,2.40065656000602e-05
1.1325,-7.70333656672377e-06,2.06007757320962e-05
1.133,-8.45933157107515e-06,1.47642514416616e-05
1.1335,-8.1781400904701e-06,6.28874308193322e-06
1.134,-7.86153871876311e-06,-2.36601112554229e-06
1.1345,-7.68595205115203e-06,-7.89002395384441e-06
1.135,-6.75738468316856e-06,-9.05482373583979e-06
1.1355,-4.15228094947735e-06,-7.10896683309978e-06
1.136,1.96908463406412e-07,-4.20413296236006e-06
1.1365,5.70631188676465e-06,-1.99452181386988e-06
1.137,1.15212308121687e-05,-7.96603841327308e-07
1.1375,1.62571844245745e-05,4.57394209031234e-07
1.138,1.81195481013689e-05,2.81076465427962e-06
1.1385,1.61828036762737e-05,5.49569453592078e-06
1.139,1.13057006820839e-05,6.02079323277163e-06
1.1395,5.15204770759542e-06,2.42560190734819e-06
1.14,-1.36680475222438e-06,-4.71567436629168e-06
1.1405,-7.98414958187334e-06,-1.28482275604835e-05
1.141,-1.37918757053401e-05,-1.97899020885702e-05
1.1415,-1.71781665605762e-05,-2.51000991740611e-05
1.142,-1.7338188439342e-05,-2.94742139143366e-05
1.1425,-1.5092950325394e-05,-3.36147281667589e-05
1.143,-1.18616186937628e-05,-3.75864251909634e-05
1.1435,-8.44594751926699e-06,-4.04501667329524e-05
1.144,-5.06780518694113e-06,-4.04564955256925e-05
1.1445,-1.81112563968369e-06,-3.62111392830725e-05
1.145,1.40691609565196e-06,-2.77170957764131e-05
1.1455,4.67448873335676e-06,-1.59691675561347e-05
1.146,7.52742322174e-06,-1.96702065954537e-06
1.1465,9.09280184906161e-06,1.317290852516e-05
1.147,9.05691988518869e-06,2.76706320302933e-05
1.1475,7.98959513978723e-06,3.98810176715814e-05
1.148,6.53013556039747e-06,4.95249370390875e-05
1.1485,4.77434875199953e-06,5.69788804250578e-05
1.149,2.68901028644125e-06,6.15170371465048e-05
1.1495,6.82283570830217e-07,6.17006047536105e-05
1.15,-6.31429685307434e-07,5.76551454062838e-05
1.1505,-1.14032787001052e-06,5.14726533609611e-05
1.151,-1.36488880970195e-06,4.47824462263311e-05
1.1515,-1.7154111144674e-06,3.71284160959036e-05
1.152,-1.94049860307692e-06,2.74672414976545e-05
1.1525,-1.69706335353716e-06,1.61800859080376e-05
1.153,-1.29927642963312e-06,4.68561718456189e-06
1.1535,-1.23607746119623e-06,-5.9051780442697e-06
1.154,-1.25424799871258e-06,-1.4535325194572e-05
1.1545,-7.5396524939656e-07,-1.95863100890832e-05
1.155,9.91397100715874e-08,-2.03919579245094e-05
1.1555,5.01642811489601e-07,-1.92940376021633e-05
1.156,1.80028482797285e-07,-2.05016007453169e-05
1.1565,-2.57052617019909e-07,-2.61498666738876e-05
1.157,-8.23319503412968e-08,-3.40578131050488e-05
1.1575,9.09836075034228e-07,-3.96995450892592e-05
1.158,2.29217840504375e-06,-4.0269018896495e-05
1.1585,3.04534731164827e-06,-3.71276469715928e-05
1.159,2.07390786119547e-06,-3.4529655814485e-05
1.1595,-5.97789728017482e-07,-3.54071344449672e-05
1.16,-3.25065409771871e-06,-3.80365860137876e-05
1.1605,-3.79831048863215e-06,-3.74759242149719e-05
1.161,-1.93538819770799e-06,-3.06749711868134e-05
1.1615,4.2681377010503e-07,-1.94723404688028e-05
1.162,1.13141343469415e-06,-8.24556769329353e-06
1.1625,-8.60564221500646e-08,3.4821797879682e-07
1.163,-1.62280948890276e-06,6.63745844039504e-06
1.1635,-1.77218055913966e-06,1.20076613635295e-05
1.164,-1.52616047567906e-07,1.67627433824162e-05
1.1645,2.20248365294653e-06,1.95070073535158e-05
1.165,3.82865295218773e-06,1.83221223240598e-05
1.1655,4.30241359249327e-06,1.33015480416048e-05
1.166,4.90175528030181e-06,7.80302384861788e-06
1.1665,7.13280389804035e-06,5.62042951218646e-06
1.167,1.04389217345274e-05,6.63161649916285e-06
1.1675,1.23239824517035e-05,6.93131353975491e-06
1.168,1.10997903933814e-05,3.79289687920004e-06
1.1685,7.5824321052273e-06,-1.00805695534636e-06
1.169,3.74201716345562e-06,-3.32599418399633e-06
1.1695,7.12686106305109e-07,-8.46572462448412e-07
1.17,-1.35296625435931e-06,5.10774942023797e-06
1.1705,-2.48734726267939e-06,1.06041477231034e-05
1.171,-2.88632230936736e-06,1.15649894663116e-05
1.1715,-3.15354898529717e-06,6.80388904474708e-06
1.172,-3.70265402409991e-06,-2.95418547844082e-07
1.1725,-4.11693369394613e-06,-4.19229241964096e-06
1.173,-3.72002652442521e-06,-2.59503693030173e-06
1.1735,-2.57332074847704e-06,1.15971103715033e-06
1.174,-1.37007591423123e-06,2.2037421016443e-06
1.1745,-5.99431757464561e-07,-3.50713441716445e-07
1.175,-3.58054418917185e-07,-3.46735593030026e-06
1.1755,-6.9868285218566e-07,-4.5122349630972e-06
1.176,-1.54077179707088e-06,-3.06585435823535e-06
1.1765,-2.42647006219517e-06,9.07178416704937e-07
1.177,-2.97995236959115e-06,7.54553295891177e-06
1.1775,-3.51269056604493e-06,1.5167334708006e-05
1.178,-4.57334251469858e-06,2.0545327315488e-05
1.1785,-5.87689203625831e-06,2.23429703396132e-05
1.179,-6.31531917164907e-06,2.24363991551163e-05
1.1795,-5.34676886589226e-06,2.28378155994453e-05
1.18,-3.91895961502943e-06,2.31429656635681e-05
1.1805,-3.52368141248717e-06,2.22775691875773e-05
1.181,-4.53493348168744e-06,2.11167591427628e-05
1.1815,-5.92131364161574e-06,2.15424884315353e-05
1.182,-6.50711737338747e-06,2.35473894471907e-05
1.1825,-6.15524876694211e-06,2.47902080085248e-05
1.183,-5.76363988628589e-06,2.30586763976482e-05
1.1835,-6.37717075349653e-06,1.8335551378273e-05
1.184,-8.21682607769722e-06,1.23404273307424e-05
1.1845,-1.03138398423004e-05,6.5921613284301e-06
1.185,-1.11262165581697e-05,1.19213817034997e-06
1.1855,-9.66225820019108e-06,-4.59889448674164e-06
1.186,-6.0531577800716e-06,-1.07695277783288e-05
1.1865,-1.27155883242721e-06,-1.5880590823812e-05
1.187,3.41276957263548e-06,-1.835523933899e-05
1.1875,6.97537879091597e-06,-1.83468428234159e-05
1.188,9.26140412836092e-06,-1.78976973043604e-05
1.1885,1.11466538015715e-05,-1.91898057520521e-05
1.189,1.3618697331748e-05,-2.28307821690972e-05
1.1895,1.6461983044641e-05,-2.78086684886124e-05
1.19,1.80061265964606e-05,-3.30164556819725e-05
1.1905,1.63974020142167e-05,-3.86037400797301e-05
1.191,1.13992966264827e-05,-4.52086372201697e-05
1.1915,5.1933609300002e-06,-5.17112128371587e-05
1.192,1.18109192666475e-06,-5.48768871002651e-05
1.1925,1.34975050313444e-06,-5.23462255957699e-05
1.193,4.49790508582959e-06,-4.56107959565194e-05
1.1935,7.29161398690649e-06,-3.88795498455931e-05
1.194,7.25839136394346e-06,-3.46001115476334e-05
1.1945,4.66725317117617e-06,-3.06537615296041e-05
1.195,1.64164304059699e-06,-2.25879560550734e-05
1.1955,-7.59216495980253e-08,-8.60924325823872e-06
1.196,-4.13528732861681e-07,8.03936697405567e-06
1.1965,-6.68368417139547e-07,2.16717129723931e-05
1.197,-2.35970047981968e-06,2.8624490344326e-05
1.1975,-6.00003609221111e-06,2.91563904268251e-05
1.198,-1.04227825739873e-05,2.61269928915417e-05
1.1985,-1.32771450867704e-05,2.30949868597455e-05
1.199,-1.25137709542362e-05,2.32516706900419e-05
1.1995,-7.7557801525809e-06,2.81794419022931e-05
1.2,-5.93881614491976e-07,3.64937452743621e-05
1.2005,6.32791352147176e-06,4.46072312667714e-05
1.201,1.08225985388706e-05,4.97941764241109e-05
1.2015,1.21029797454519e-05,5.18138715806855e-05
1.202,1.04190140120089e-05,5.08928767197707e-05
1.2025,6.30276889611628e-06,4.56027820973057e-05
1.203,7.878582798768e-07,3.46194347721491e-05
1.2035,-4.12536072160699e-06,1.99663051617088e-05
1.204,-6.48802640428139e-06,6.39800902953563e-06
1.2045,-6.07639364579278e-06,-2.874252922523e-06
1.205,-4.30255880008908e-06,-8.66588451155736e-06
1.2055,-2.55207681347124e-06,-1.38049126408865e-05
1.206,-1.22255173760104e-06,-1.96812320953769e-05
1.2065,-2.56572278277044e-08,-2.53464248719257e-05
1.207,1.44109660391091e-06,-2.94138040769113e-05
1.2075,3.14134607910028e-06,-3.18690108959249e-05
1.208,4.26513281438275e-06,-3.3691763157362e-05
1.2085,3.8759174477495e-06,-3.53301445711303e-05
1.209,2.07755580308647e-06,-3.62344568482263e-05
1.2095,-1.32783844777844e-08,-3.57327940318252e-05
1.21,-1.63158683125643e-06,-3.3792381727057e-05
1.2105,-3.07315677365894e-06,-3.07289683529479e-05
1.211,-4.69912381163764e-06,-2.63267376492344e-05
1.2115,-5.83663119224317e-06,-1.94548504440467e-05
1.212,-5.36004597280262e-06,-8.83643118858801e-06
1.2125,-3.22188772866677e-06,5.48984100119883e-06
1.213,-8.69552917736397e-07,2.14574489891072e-05
1.2135,-4.18267342993126e-08,3.59569676088431e-05
1.214,-1.38776568071148e-06,4.65162958464006e-05
1.2145,-4.23988875650405e-06,5.20515449928312e-05
1.215,-7.22338241479346e-06,5.29658373932032e-05
1.2155,-8.6629555273685e-06,5.15578269716573e-05
1.216,-7.01100441972753e-06,5.15201929444293e-05
1.2165,-2.1446014414014e-06,5.52286162506536e-05
1.217,3.62048225395878e-06,6.12299596553546e-05
1.2175,7.00472212299965e-06,6.53232122883926e-05
1.218,6.85373968538829e-06,6.42756275384272e-05
1.2185,5.11917339008245e-06,5.81019239743682e-05
